Subject Name, Event Name, Channel Name, Start time, End Time, 
211_AXCPT19_TK,AX correct probe response,Channel-1 HbO,480933.0520629883,495933.0520629883,0.1335861189,0.1265469791,0.1189502773,0.1112223392,0.1039339046,0.0975576668,0.0922271354,0.0876860617,0.0834821072,0.0792613659,0.0749456387,0.0706782380,0.0665993515,0.0626410186,0.0585259198,0.0539817145,0.0489836669,0.0438133667,0.0388746167,0.0343883331,0.0301828518,0.0257409969,0.0204696707,0.0139840674,0.0062136544,-0.0026968304,-0.0125583721,-0.0232067275,-0.0344047471,-0.0456817241,-0.0562763700,-0.0652574899,-0.0717490708,-0.0751006950,-0.0748929880,-0.0708321427,-0.0627084009,-0.0505324668,-0.0347811706,-0.0165470771,0.0025823081,0.0208916767,0.0369313747,0.0497159768,0.0586833634,0.0635504747,0.0642433633,0.0609523637,0.0542000373,0.0447887067,0.0336220544,0.0215245904,0.0091854985,-0.0027768529,-0.0137567189,-0.0232134068,-0.0308049556,-0.0364737588,-0.0403893605,-0.0427935444,-0.0438874022,-0.0438451171,-0.0429007291,-0.0413762376,-0.0395848796,-0.0376893245,-0.0356573249,-0.0333680781,-0.0307767928,-0.0279797069,-0.0251077281,-0.0221467801,-0.0188641361,-0.0149330991,-0.0101836207,-0.0047915274,0.0007549619,0.0058960864,0.0102576949,0.0137360045,0.0163804915,0.0182063079,0.0191125959,0.0189764769,0.0178224026,0.0159001223,0.0135966324,0.0112576337,0.0090753702,0.0071387224,0.0055806625,0.0046587018,0.0046664597,0.0057303812,0.0076640228,0.0100297904,0.0123834418,0.0145069093,0.0164449130,0.0183242901,0.0201023571,0.0214515276,0.0218889577,0.0210571654,0.0189341560,0.0158136701,0.0120724172,0.0078939605,0.0031544123,-0.0024471434,-0.0091292565,-0.0168504795,-0.0253393211,-0.0342876733,-0.0435357774,-0.0530827288,-0.0629158837,-0.0728257035,-0.0823810654,-0.0910933047,-0.0986401005,-0.1049659491,-0.1101725521,-0.1142969470,-0.1171755499,-0.1185169739,-0.1181380229,-0.1161823971,-0.1131340190,-0.1095917886,-0.1059731760
211_AXCPT19_TK,AX correct probe response,Channel-1 HbO,534262.9711627960,549262.9711627960,0.1023682209,0.1017050239,0.1014383759,0.1010909481,0.1002331362,0.0988058960,0.0971817354,0.0959367750,0.0954865905,0.0958275576,0.0965645939,0.0971946270,0.0974185781,0.0972568672,0.0969135268,0.0965147183,0.0959366464,0.0948765604,0.0931202706,0.0907870972,0.0883530725,0.0864227292,0.0853923221,0.0852334447,0.0855638934,0.0859613731,0.0862824699,0.0867567347,0.0877990279,0.0896666118,0.0921905646,0.0947787361,0.0966983127,0.0974339267,0.0968773747,0.0952466395,0.0928121886,0.0896264510,0.0854509259,0.0799250375,0.0728267378,0.0642167657,0.0543696002,0.0435593240,0.0318824830,0.0192864903,0.0058042025,-0.0081951502,-0.0219533610,-0.0345371245,-0.0452058933,-0.0537081676,-0.0603046514,-0.0655049372,-0.0697201685,-0.0730763300,-0.0754893958,-0.0769188220,-0.0775959596,-0.0780321787,-0.0787772305,-0.0801050673,-0.0818600059,-0.0835699313,-0.0847528383,-0.0852171926,-0.0851521727,-0.0849537856,-0.0849361331,-0.0851491639,-0.0854182357,-0.0855496984,-0.0855234812,-0.0854964904,-0.0855990047,-0.0856969765,-0.0853287741,-0.0838891447,-0.0809572240,-0.0765532226,-0.0711323301,-0.0653112341,-0.0595323379,-0.0539027712,-0.0482943620,-0.0426042655,-0.0369630246,-0.0317089968,-0.0271398719,-0.0232468991,-0.0196442973,-0.0157444564,-0.0110538571,-0.0053826191,0.0011722493,0.0084231022,0.0162789425,0.0247697821,0.0339092008,0.0435353077,0.0532921471,0.0627867575,0.0717887410,0.0802996027,0.0884342486,0.0962117028,0.1034344652,0.1097765399,0.1150214165,0.1192534965,0.1228435583,0.1262303251,0.1296519539,0.1330278381,0.1360858770,0.1386344268,0.1407638892,0.1428275676,0.1452173956,0.1480933777,0.1512640540,0.1543063669,0.1568234001,0.1586379750,0.1597928224,0.1603904551,0.1604326738,0.1598181661,0.1585061529,0.1566865944,0.1547852122
211_AXCPT19_TK,AX correct probe response,Channel-1 HbO,656749.7539520264,671749.7539520264,-0.0746020359,-0.0690313229,-0.0625511785,-0.0550300136,-0.0466901747,-0.0380714776,-0.0297805571,-0.0222241345,-0.0155119893,-0.0095568936,-0.0042434834,0.0004997657,0.0047786720,0.0088534051,0.0131480419,0.0181031723,0.0239717879,0.0307261991,0.0381638663,0.0461241657,0.0546265153,0.0638096200,0.0737159925,0.0840989265,0.0944305599,0.1041279332,0.1128223730,0.1204669396,0.1272158607,0.1331801929,0.1382539869,0.1421516492,0.1446178874,0.1456243135,0.1453929926,0.1442431904,0.1424026656,0.1399491816,0.1369213327,0.1334731693,0.1299121805,0.1265735702,0.1236288015,0.1209937880,0.1184314727,0.1157744085,0.1130827909,0.1106062666,0.1085703288,0.1069427175,0.1053686872,0.1033509064,0.1005557584,0.0970248271,0.0931444270,0.0893928250,0.0860266972,0.0829161611,0.0796450752,0.0757967841,0.0712081858,0.0660186459,0.0605045176,0.0548411558,0.0489813635,0.0427414460,0.0360076506,0.0288785666,0.0216249351,0.0145020570,0.0075749516,0.0007199238,-0.0061825874,-0.0130270205,-0.0194249644,-0.0248712642,-0.0290310816,-0.0319450618,-0.0339826962,-0.0355614082,-0.0368449782,-0.0376470823,-0.0376037056,-0.0364936271,-0.0344835351,-0.0321178302,-0.0300680058,-0.0288447140,-0.0286763261,-0.0295972003,-0.0316237123,-0.0348396649,-0.0393061564,-0.0448841724,-0.0511468585,-0.0574858208,-0.0633593875,-0.0685056109,-0.0729485335,-0.0767944912,-0.0800018388,-0.0823221331,-0.0834618178,-0.0833453321,-0.0822755117,-0.0808475444,-0.0796671901,-0.0790862918,-0.0791413692,-0.0797112234,-0.0807471891,-0.0823814109,-0.0848267458,-0.0881677316,-0.0922310391,-0.0966447967,-0.1010390093,-0.1052205562,-0.1091655602,-0.1128323981,-0.1159705329,-0.1181062068,-0.1187403473,-0.1176358853,-0.1149920255,-0.1113587398,-0.1073353743,-0.1032688215,-0.0991546903,-0.0947840088,-0.0900112537
211_AXCPT19_TK,AX correct probe response,Channel-1 HbO,721892.5380706787,736892.5380706787,-0.1003195789,-0.0835607719,-0.0638169342,-0.0422867173,-0.0202610806,0.0008375628,0.0195385885,0.0345820545,0.0452222018,0.0513715324,0.0534933276,0.0523391110,0.0487243118,0.0434455357,0.0372689831,0.0308661519,0.0246796512,0.0188259951,0.0131443279,0.0073704051,0.0012970448,-0.0051853753,-0.0121352497,-0.0195716357,-0.0273886826,-0.0352469231,-0.0425687453,-0.0486738178,-0.0529570518,-0.0549750393,-0.0544116888,-0.0510266790,-0.0446944723,-0.0355190972,-0.0239023450,-0.0104671352,0.0041221641,0.0192953490,0.0345720234,0.0494729879,0.0634904927,0.0761833924,0.0873052585,0.0968206468,0.1047735675,0.1111248042,0.1157215523,0.1184423502,0.1193826343,0.1189027876,0.1174869864,0.1155258597,0.1132036752,0.1105795014,0.1077721258,0.1050664519,0.1028341883,0.1013174398,0.1004426789,0.0998234288,0.0989513143,0.0974105455,0.0949543809,0.0914310524,0.0866875255,0.0805925575,0.0731853660,0.0648040394,0.0560458623,0.0475548052,0.0397827570,0.0329053475,0.0269410672,0.0219349348,0.0180215904,0.0153125595,0.0137197536,0.0128972350,0.0123935689,0.0119160084,0.0114966503,0.0114265459,0.0120030611,0.0132782385,0.0150004551,0.0167817058,0.0183320179,0.0195695202,0.0205480207,0.0213017765,0.0217692368,0.0218750445,0.0216866756,0.0214798629,0.0216228662,0.0223444253,0.0235660266,0.0249592861,0.0262102189,0.0272847407,0.0284845443,0.0302453521,0.0328103911,0.0360084862,0.0393117618,0.0421389374,0.0441736282,0.0454692003,0.0462817822,0.0467564389,0.0466934472,0.0455800502,0.0428751477,0.0383328315,0.0321354817,0.0247629576,0.0167015937,0.0081991924,-0.0007592073,-0.0102576607,-0.0202215192,-0.0303473551,-0.0402341248,-0.0495981309,-0.0583867939,-0.0666852751,-0.0744923672,-0.0815616137,-0.0874494359,-0.0917513469,-0.0943642584
211_AXCPT19_TK,AX correct probe response,Channel-1 HbO,727512.2499465942,742512.2499465942,0.1189027876,0.1174869864,0.1155258597,0.1132036752,0.1105795014,0.1077721258,0.1050664519,0.1028341883,0.1013174398,0.1004426789,0.0998234288,0.0989513143,0.0974105455,0.0949543809,0.0914310524,0.0866875255,0.0805925575,0.0731853660,0.0648040394,0.0560458623,0.0475548052,0.0397827570,0.0329053475,0.0269410672,0.0219349348,0.0180215904,0.0153125595,0.0137197536,0.0128972350,0.0123935689,0.0119160084,0.0114966503,0.0114265459,0.0120030611,0.0132782385,0.0150004551,0.0167817058,0.0183320179,0.0195695202,0.0205480207,0.0213017765,0.0217692368,0.0218750445,0.0216866756,0.0214798629,0.0216228662,0.0223444253,0.0235660266,0.0249592861,0.0262102189,0.0272847407,0.0284845443,0.0302453521,0.0328103911,0.0360084862,0.0393117618,0.0421389374,0.0441736282,0.0454692003,0.0462817822,0.0467564389,0.0466934472,0.0455800502,0.0428751477,0.0383328315,0.0321354817,0.0247629576,0.0167015937,0.0081991924,-0.0007592073,-0.0102576607,-0.0202215192,-0.0303473551,-0.0402341248,-0.0495981309,-0.0583867939,-0.0666852751,-0.0744923672,-0.0815616137,-0.0874494359,-0.0917513469,-0.0943642584,-0.0955743049,-0.0958855330,-0.0957091039,-0.0951430666,-0.0939966967,-0.0920385817,-0.0892974129,-0.0861989272,-0.0834324445,-0.0816466836,-0.0811963564,-0.0820972707,-0.0841794323,-0.0872847768,-0.0913302242,-0.0961843732,-0.1014883610,-0.1066103513,-0.1108160517,-0.1135737134,-0.1147985449,-0.1148551417,-0.1143052795,-0.1135856156,-0.1128386728,-0.1119868054,-0.1109626149,-0.1098959566,-0.1090829518,-0.1087451000,-0.1087773727,-0.1086957817,-0.1078415495,-0.1057250298,-0.1022919754,-0.0979311369,-0.0932307040,-0.0886827460,-0.0845447963,-0.0809144343,-0.0779090126,-0.0757715207,-0.0747896995,-0.0750867044,-0.0764667988,-0.0784591408,-0.0805495048,-0.0824483935,-0.0842029258
211_AXCPT19_TK,AX correct probe response,Channel-1 HbO,733017.2741413116,748017.2741413116,0.0249592861,0.0262102189,0.0272847407,0.0284845443,0.0302453521,0.0328103911,0.0360084862,0.0393117618,0.0421389374,0.0441736282,0.0454692003,0.0462817822,0.0467564389,0.0466934472,0.0455800502,0.0428751477,0.0383328315,0.0321354817,0.0247629576,0.0167015937,0.0081991924,-0.0007592073,-0.0102576607,-0.0202215192,-0.0303473551,-0.0402341248,-0.0495981309,-0.0583867939,-0.0666852751,-0.0744923672,-0.0815616137,-0.0874494359,-0.0917513469,-0.0943642584,-0.0955743049,-0.0958855330,-0.0957091039,-0.0951430666,-0.0939966967,-0.0920385817,-0.0892974129,-0.0861989272,-0.0834324445,-0.0816466836,-0.0811963564,-0.0820972707,-0.0841794323,-0.0872847768,-0.0913302242,-0.0961843732,-0.1014883610,-0.1066103513,-0.1108160517,-0.1135737134,-0.1147985449,-0.1148551417,-0.1143052795,-0.1135856156,-0.1128386728,-0.1119868054,-0.1109626149,-0.1098959566,-0.1090829518,-0.1087451000,-0.1087773727,-0.1086957817,-0.1078415495,-0.1057250298,-0.1022919754,-0.0979311369,-0.0932307040,-0.0886827460,-0.0845447963,-0.0809144343,-0.0779090126,-0.0757715207,-0.0747896995,-0.0750867044,-0.0764667988,-0.0784591408,-0.0805495048,-0.0824483935,-0.0842029258,-0.0860656432,-0.0882248878,-0.0906083491,-0.0929034524,-0.0947753700,-0.0961234406,-0.0971771818,-0.0983414272,-0.0998983615,-0.1017883626,-0.1036248013,-0.1049309411,-0.1054416699,-0.1052640181,-0.1047855304,-0.1044122280,-0.1043415482,-0.1045237873,-0.1048082799,-0.1051330388,-0.1055850970,-0.1062718027,-0.1071188531,-0.1077811608,-0.1077628825,-0.1066872702,-0.1045381931,-0.1016889281,-0.0986793563,-0.0958999146,-0.0934067552,-0.0909841420,-0.0883984326,-0.0856587417,-0.0830821715,-0.0810980083,-0.0799319109,-0.0794051271,-0.0789948779,-0.0781284944,-0.0765386164,-0.0744556412,-0.0725080755,-0.0714068547,-0.0716377572,-0.0733487740,-0.0764561691,-0.0808388478
211_AXCPT19_TK,AX correct probe response,Channel-1 HbO,742536.3781452179,757536.3781452179,-0.0860656432,-0.0882248878,-0.0906083491,-0.0929034524,-0.0947753700,-0.0961234406,-0.0971771818,-0.0983414272,-0.0998983615,-0.1017883626,-0.1036248013,-0.1049309411,-0.1054416699,-0.1052640181,-0.1047855304,-0.1044122280,-0.1043415482,-0.1045237873,-0.1048082799,-0.1051330388,-0.1055850970,-0.1062718027,-0.1071188531,-0.1077811608,-0.1077628825,-0.1066872702,-0.1045381931,-0.1016889281,-0.0986793563,-0.0958999146,-0.0934067552,-0.0909841420,-0.0883984326,-0.0856587417,-0.0830821715,-0.0810980083,-0.0799319109,-0.0794051271,-0.0789948779,-0.0781284944,-0.0765386164,-0.0744556412,-0.0725080755,-0.0714068547,-0.0716377572,-0.0733487740,-0.0764561691,-0.0808388478,-0.0864355526,-0.0931491643,-0.1006434589,-0.1082261243,-0.1149525921,-0.1199306310,-0.1226666050,-0.1232387541,-0.1221688015,-0.1200710876,-0.1173198920,-0.1139444304,-0.1097906387,-0.1048179198,-0.0993091511,-0.0938241529,-0.0889238637,-0.0848762385,-0.0815519484,-0.0785595947,-0.0755038135,-0.0721710019,-0.0685083247,-0.0644399540,-0.0597057610,-0.0538788426,-0.0465667833,-0.0376575065,-0.0274230332,-0.0163887185,-0.0050603588,0.0062857153,0.0176026091,0.0288752335,0.0398797216,0.0500990767,0.0588908254,0.0658032030,0.0708138995,0.0743265676,0.0769312156,0.0790863664,0.0809315463,0.0823441782,0.0831657310,0.0834015301,0.0832498956,0.0829716344,0.0827413959,0.0826293224,0.0827240120,0.0832568100,0.0845866840,0.0870432548,0.0907629891,0.0956693689,0.1016130430,0.1085280317,0.1164465632,0.1253504315,0.1349863541,0.1448187572,0.1541867133,0.1625516664,0.1696441931,0.1754096659,0.1798178155,0.1827147638,0.1838678936,0.1831783390,0.1808694968,0.1774735708,0.1736016213,0.1696460739,0.1656230121,0.1612672291,0.1562973773,0.1506423422,0.1444742865,0.1380599093,0.1315829912,0.1251021791,0.1186644486
211_AXCPT19_TK,AX correct probe response,Channel-1 HbO,758133.9449882507,773133.9449882507,0.0894206236,0.0854675389,0.0815723088,0.0780896750,0.0753457937,0.0734424812,0.0722694116,0.0717034975,0.0718034064,0.0728193176,0.0750027378,0.0783653617,0.0825833469,0.0871301823,0.0915309528,0.0955409019,0.0991331671,0.1023411191,0.1051153323,0.1073358819,0.1089648954,0.1101789191,0.1113376071,0.1127934858,0.1146894172,0.1169166795,0.1192788291,0.1217244899,0.1244540418,0.1278143213,0.1320615400,0.1371792678,0.1429040421,0.1489342049,0.1551340576,0.1615589123,0.1682842381,0.1751780245,0.1818035235,0.1875378717,0.1918128958,0.1942940783,0.1948859333,0.1936033085,0.1904587212,0.1854964133,0.1789499908,0.1713585095,0.1634958328,0.1561180488,0.1496809641,0.1442221857,0.1394910165,0.1352153007,0.1312945205,0.1277848306,0.1247071416,0.1218442174,0.1187111352,0.1147480365,0.1095945790,0.1032419784,0.0959643536,0.0880948976,0.0798236624,0.0711769647,0.0621786072,0.0530270372,0.0441177557,0.0358810885,0.0285557933,0.0220779321,0.0161819369,0.0106327974,0.0053975467,0.0006239911,-0.0035450081,-0.0071594328,-0.0104774403,-0.0137759412,-0.0171099924,-0.0202221469,-0.0226831983,-0.0241779460,-0.0247402490,-0.0247642799,-0.0247903665,-0.0252440918,-0.0263194421,-0.0280529742,-0.0304807137,-0.0337118118,-0.0378367769,-0.0427536620,-0.0480844912,-0.0532842461,-0.0578905654,-0.0617400653,-0.0649803663,-0.0678655180,-0.0705062311,-0.0727718239,-0.0744052266,-0.0752509626,-0.0754096090,-0.0751815022,-0.0748397614,-0.0744243990,-0.0737257234,-0.0724690838,-0.0705635300,-0.0682272719,-0.0658943802,-0.0639836490,-0.0627134455,-0.0620895715,-0.0620474387,-0.0626073655,-0.0638915094,-0.0659840952,-0.0687749866,-0.0719425688,-0.0751046920,-0.0780236365,-0.0806963943,-0.0832460628,-0.0857034225,-0.0878688077,-0.0893798866,-0.0899528446,-0.0896299372
211_AXCPT19_TK,AX correct probe response,Channel-1 HbO,815707.3211669922,830707.3211669922,0.1178696667,0.1300590518,0.1418864319,0.1532968987,0.1639916016,0.1734903338,0.1813401510,0.1872995070,0.1913633675,0.1936415866,0.1942289971,0.1932068737,0.1907752865,0.1873676681,0.1836003920,0.1800470240,0.1769719731,0.1742135509,0.1713183688,0.1678384925,0.1635761608,0.1586144814,0.1531388041,0.1472009014,0.1406232565,0.1331397360,0.1246732985,0.1155308993,0.1063570517,0.0978552079,0.0904349423,0.0840018236,0.0780259439,0.0718277906,0.0648686108,0.0568640825,0.0477011917,0.0372879266,0.0255079424,0.0123498546,-0.0018938559,-0.0165458504,-0.0306891297,-0.0434917694,-0.0545375135,-0.0639530477,-0.0722303021,-0.0798537959,-0.0869852027,-0.0934047114,-0.0987295121,-0.1027588831,-0.1057099509,-0.1081668177,-0.1107716676,-0.1138829604,-0.1174337919,-0.1210655882,-0.1244335781,-0.1274726774,-0.1304361029,-0.1336940722,-0.1374712587,-0.1417266569,-0.1462409719,-0.1508141968,-0.1553940333,-0.1600128784,-0.1645865155,-0.1687629676,-0.1719715192,-0.1736621690,-0.1735776290,-0.1718577400,-0.1688886208,-0.1650101779,-0.1603059096,-0.1546246134,-0.1478097025,-0.1399652829,-0.1315555097,-0.1232564053,-0.1156753156,-0.1091450344,-0.1037176072,-0.0993200631,-0.0959124517,-0.0934968764,-0.0919772318,-0.0910230349,-0.0900874616,-0.0885902601,-0.0861346432,-0.0825883277,-0.0779654244,-0.0722204023,-0.0651399859,-0.0564303587,-0.0459371086,-0.0338205287,-0.0205288111,-0.0065801283,0.0076667028,0.0220750044,0.0365988627,0.0510845283,0.0651791414,0.0784217008,0.0904255630,0.1009930291,0.1100850195,0.1177067745,0.1238459348,0.1285447335,0.1320411524,0.1348235820,0.1375043208,0.1405657201,0.1441508117,0.1480631268,0.1519813204,0.1557131674,0.1592908775,0.1628476610,0.1663793101,0.1695855843,0.1719438304,0.1729863119,0.1725780189,0.1709921729,0.1687344330
211_AXCPT19_TK,AX correct probe response,Channel-1 HbO,908604.5999526978,923604.5999526978,-0.0899281852,-0.0885897917,-0.0866263772,-0.0843629964,-0.0821891545,-0.0803093884,-0.0786634836,-0.0770446532,-0.0752905526,-0.0733727091,-0.0713084790,-0.0689900777,-0.0661037088,-0.0622356508,-0.0571144699,-0.0508213059,-0.0437940216,-0.0365944265,-0.0295984454,-0.0228278509,-0.0160295489,-0.0089364648,-0.0015213284,0.0059470603,0.0130871180,0.0196765282,0.0258023250,0.0317866968,0.0379490421,0.0443775779,0.0508809544,0.0571487402,0.0629777226,0.0683835255,0.0735290500,0.0785465239,0.0834129659,0.0880005319,0.0922664436,0.0964087772,0.1008343587,0.1059309294,0.1117833080,0.1180349402,0.1240161679,0.1290659246,0.1328267370,0.1353255560,0.1368121618,0.1374854087,0.1373171243,0.1361251340,0.1338521696,0.1308318016,0.1278321908,0.1258307397,0.1256434810,0.1276274455,0.1316412820,0.1372720390,0.1441414223,0.1520714748,0.1610202754,0.1708611882,0.1811838228,0.1912842931,0.2003630534,0.2077754088,0.2131470602,0.2162843592,0.2169666181,0.2148092535,0.2093508086,0.2003327332,0.1879629236,0.1729574782,0.1563207939,0.1390058481,0.1216763089,0.1047093727,0.0883817882,0.0730454372,0.0591414274,0.0470587235,0.0369786053,0.0288571875,0.0225629354,0.0180317790,0.0152926078,0.0143459651,0.0150173349,0.0169353937,0.0196666726,0.0228827061,0.0264117148,0.0301455032,0.0339091291,0.0374392200,0.0405101107,0.0430889444,0.0453624255,0.0475924955,0.0499081846,0.0522057207,0.0542467552,0.0558690269,0.0571226588,0.0582126903,0.0592887585,0.0602529968,0.0607620821,0.0604453685,0.0591702076,0.0571447959,0.0547771185,0.0523791609,0.0499190334,0.0470106141,0.0431600836,0.0380871945,0.0318970613,0.0250100377,0.0179295240,0.0110355752,0.0045675125,-0.0012109338,-0.0058424690,-0.0086851597,-0.0091350830,-0.0069356838,-0.0023559752
211_AXCPT19_TK,AX correct probe response,Channel-1 HbO,971338.9360904694,986338.9360904694,-0.0433418594,-0.0497899507,-0.0563798213,-0.0628682157,-0.0689377984,-0.0743718481,-0.0791407363,-0.0833294238,-0.0869861756,-0.0900417111,-0.0923755917,-0.0939725914,-0.0950229318,-0.0958529806,-0.0967238793,-0.0976655933,-0.0984870653,-0.0989556677,-0.0990015313,-0.0987745449,-0.0985013101,-0.0982666262,-0.0979081785,-0.0971154517,-0.0956674609,-0.0936351516,-0.0913859975,-0.0893817780,-0.0879335319,-0.0871005229,-0.0867911167,-0.0869715269,-0.0878102430,-0.0896332575,-0.0927241737,-0.0971377411,-0.1026767140,-0.1090450663,-0.1160553756,-0.1237222097,-0.1321599244,-0.1413700580,-0.1510988466,-0.1608856607,-0.1702780047,-0.1790653464,-0.1873552288,-0.1954210242,-0.2034303599,-0.2112583043,-0.2185203331,-0.2248036069,-0.2299425122,-0.2341492970,-0.2379114058,-0.2417428218,-0.2459746126,-0.2507145210,-0.2559677944,-0.2617946395,-0.2683548030,-0.2757884774,-0.2840336724,-0.2927410585,-0.3013707989,-0.3094219431,-0.3166435900,-0.3230738059,-0.3288775086,-0.3341180266,-0.3386430075,-0.3421652617,-0.3444758070,-0.3456303313,-0.3459583217,-0.3458774397,-0.3456556735,-0.3452982882,-0.3446298242,-0.3434995053,-0.3419490332,-0.3402029461,-0.3384861793,-0.3368239811,-0.3349880278,-0.3326290273,-0.3294980565,-0.3255928251,-0.3211185651,-0.3163056285,-0.3112445120,-0.3058724313,-0.3001147225,-0.2940590911,-0.2880001456,-0.2822786131,-0.2770069549,-0.2718732399,-0.2661597613,-0.2589647936,-0.2494849985,-0.2371823789,-0.2217609238,-0.2030430438,-0.1809127561,-0.1554219587,-0.1270130490,-0.0966920514,-0.0659773546,-0.0365945615,-0.0100783543,0.0125048061,0.0306100742,0.0440967619,0.0530909583,0.0579558288,0.0593571023,0.0582858849,0.0559218276,0.0533575800,0.0513355928,0.0501670228,0.0498748566,0.0504282085,0.0518795846,0.0543195280,0.0577168901,0.0618045546,0.0661298733,0.0702356966,0.0738169626
211_AXCPT19_TK,AX correct probe response,Channel-1 HbO,981890.2311325073,996890.2311325073,-0.3001147225,-0.2940590911,-0.2880001456,-0.2822786131,-0.2770069549,-0.2718732399,-0.2661597613,-0.2589647936,-0.2494849985,-0.2371823789,-0.2217609238,-0.2030430438,-0.1809127561,-0.1554219587,-0.1270130490,-0.0966920514,-0.0659773546,-0.0365945615,-0.0100783543,0.0125048061,0.0306100742,0.0440967619,0.0530909583,0.0579558288,0.0593571023,0.0582858849,0.0559218276,0.0533575800,0.0513355928,0.0501670228,0.0498748566,0.0504282085,0.0518795846,0.0543195280,0.0577168901,0.0618045546,0.0661298733,0.0702356966,0.0738169626,0.0767295744,0.0788668758,0.0800376439,0.0799805166,0.0785193540,0.0757249390,0.0719463911,0.0676997420,0.0635256800,0.0599439826,0.0575178209,0.0569133253,0.0588402659,0.0638791825,0.0723171673,0.0841204755,0.0990470305,0.1167683315,0.1368758070,0.1587752683,0.1815966475,0.2042615486,0.2257269667,0.2452581405,0.2625441234,0.2775884076,0.2904677901,0.3011453131,0.3094831951,0.3154340274,0.3192324951,0.3214149028,0.3226335663,0.3233792716,0.3237948324,0.3237095736,0.3228581353,0.3211041828,0.3185075792,0.3152176559,0.3113131320,0.3067440944,0.3014319105,0.2954292567,0.2889856493,0.2824499328,0.2760795143,0.2699110387,0.2638080654,0.2576476658,0.2514791951,0.2455137567,0.2399451868,0.2347414372,0.2295836474,0.2240224408,0.2177393195,0.2107142790,0.2031789274,0.1953891159,0.1873758083,0.1788622573,0.1694276213,0.1588076535,0.1471153975,0.1348282483,0.1225454625,0.1106610266,0.0991586235,0.0876677537,0.0757347149,0.0631068549,0.0498433605,0.0362109379,0.0224701190,0.0087285671,-0.0050156624,-0.0186812261,-0.0319353862,-0.0442034803,-0.0548713428,-0.0635583658,-0.0702753454,-0.0753439303,-0.0791302556,-0.0817899858,-0.0832026993,-0.0831304734,-0.0814880332,-0.0785307862,-0.0748063789,-0.0708869899
211_AXCPT19_TK,AX correct probe response,Channel-1 HbO,1024668.8549518585,1039668.8549518585,0.2251701988,0.2292545654,0.2331366244,0.2369180027,0.2409325244,0.2455139408,0.2507199934,0.2562340469,0.2615323438,0.2661820405,0.2700301443,0.2731454156,0.2755710027,0.2770915899,0.2772187950,0.2754225664,0.2714249600,0.2653343119,0.2575455236,0.2485126865,0.2385879560,0.2280511982,0.2172668633,0.2067783993,0.1972140837,0.1890543091,0.1824455019,0.1772275473,0.1731566713,0.1701238586,0.1681834795,0.1673844430,0.1675650866,0.1683090621,0.1691228564,0.1696920645,0.1700029480,0.1702333382,0.1704996210,0.1706659858,0.1703881338,0.1693648698,0.1675805055,0.1653334295,0.1630239349,0.1608503488,0.1586343160,0.1559111339,0.1522116459,0.1473114647,0.1412751540,0.1343053556,0.1265600810,0.1181156733,0.1091033084,0.0998657182,0.0909560540,0.0829387208,0.0761132141,0.0703602865,0.0652429112,0.0602975767,0.0552960408,0.0502988150,0.0454987922,0.0410102078,0.0367924126,0.0327731495,0.0290475496,0.0259625883,0.0240018488,0.0235462586,0.0246868643,0.0272322333,0.0308870344,0.0354322054,0.0407637222,0.0468009014,0.0533985283,0.0603807127,0.0676709722,0.0753753625,0.0837163630,0.0928628842,0.1028069108,0.1133987053,0.1244958440,0.1360683226,0.1481532725,0.1607045875,0.1734908989,0.1861602124,0.1984264014,0.2102044315,0.2215653530,0.2325439104,0.2429661398,0.2524607224,0.2606552591,0.2673838970,0.2727292632,0.2768729619,0.2798836288,0.2816216325,0.2818439947,0.2804167809,0.2774518279,0.2732619833,0.2681858514,0.2624399718,0.2561282659,0.2493835246,0.2424831900,0.2358109839,0.2296835745,0.2241907985,0.2192039835,0.2145624169,0.2102778488,0.2065784552,0.2037501099,0.2018901445,0.2007662390,0.1999110259,0.1988942796,0.1975613534,0.1960596158,0.1946416114,0.1933906500,0.1920743996,0.1902459080
211_AXCPT19_TK,AX correct probe response,Channel-1 HbO,1087976.6311645508,1102976.6311645508,0.2872053943,0.2791740532,0.2694685860,0.2580224756,0.2449196216,0.2302789005,0.2142321655,0.1970237143,0.1791203360,0.1611970969,0.1439688608,0.1279655554,0.1134064992,0.1002647353,0.0884568810,0.0779890849,0.0689381198,0.0612922976,0.0547997185,0.0489786628,0.0433099727,0.0374672480,0.0314120214,0.0252964687,0.0192570495,0.0132593335,0.0071157918,0.0006500869,-0.0061466254,-0.0131022463,-0.0199972642,-0.0267280925,-0.0333564574,-0.0399983651,-0.0466521939,-0.0531179443,-0.0590779624,-0.0642788691,-0.0686676367,-0.0723598698,-0.0754629829,-0.0779133626,-0.0794748099,-0.0799131968,-0.0792287687,-0.0777699579,-0.0761181168,-0.0748050734,-0.0740611532,-0.0737618242,-0.0735944976,-0.0733265431,-0.0729891315,-0.0728446291,-0.0731735325,-0.0740621470,-0.0753556023,-0.0768028959,-0.0782877482,-0.0799775451,-0.0822698338,-0.0855691442,-0.0900633549,-0.0956575378,-0.1020941826,-0.1091571548,-0.1167956179,-0.1250593774,-0.1338945963,-0.1429740078,-0.1517096617,-0.1594620332,-0.1658269193,-0.1708140187,-0.1747801690,-0.1781532158,-0.1811442960,-0.1836432183,-0.1853501762,-0.1860468915,-0.1858247057,-0.1851079264,-0.1844556480,-0.1842921239,-0.1847518980,-0.1857198922,-0.1870063897,-0.1885066020,-0.1902100967,-0.1920606064,-0.1938082356,-0.1950021015,-0.1951548727,-0.1939819052,-0.1915488651,-0.1882035397,-0.1843265064,-0.1800834839,-0.1753546521,-0.1698798585,-0.1635159650,-0.1564250709,-0.1490472513,-0.1418702562,-0.1351696859,-0.1289047581,-0.1228301678,-0.1167425400,-0.1106940478,-0.1050214741,-0.1001741765,-0.0964778595,-0.0940000624,-0.0925838752,-0.0919899945,-0.0920121906,-0.0924598448,-0.0930315921,-0.0932187881,-0.0923606890,-0.0898530069,-0.0853901476,-0.0790755278,-0.0713112197,-0.0625428468,-0.0530455688,-0.0428943891,-0.0321221905,-0.0209387216,-0.0098341442,0.0005327604
211_AXCPT19_TK,AX correct probe response,Channel-1 HbO,1103000.7581710815,1118000.7581710815,0.0095928905,0.0170865797,0.0231001203,0.0279168320,0.0318082816,0.0349243171,0.0373491070,0.0392424484,0.0409190136,0.0427839001,0.0451671520,0.0481899648,0.0517804653,0.0558261299,0.0603206380,0.0653703699,0.0710507312,0.0772294704,0.0835149204,0.0894003405,0.0945133089,0.0987881497,0.1024397755,0.1057608394,0.1088856525,0.1116917872,0.1139070549,0.1153225573,0.1159343074,0.1159085526,0.1154070991,0.1144153717,0.1127178033,0.1100421448,0.1062470421,0.1014007404,0.0957003335,0.0893066193,0.0822374524,0.0744220405,0.0658781425,0.0568577298,0.0478298689,0.0392959878,0.0315561764,0.0245962511,0.0181969052,0.0121974605,0.0067188805,0.0021839384,-0.0008825517,-0.0021519359,-0.0016976980,0.0000357329,0.0024766280,0.0051915601,0.0079776098,0.0107231144,0.0131300910,0.0144873884,0.0136841048,0.0095130028,0.0011034268,-0.0117722227,-0.0286742484,-0.0487222405,-0.0709043422,-0.0942845010,-0.1180353891,-0.1413755139,-0.1635416396,-0.1838558011,-0.2018354395,-0.2172360538,-0.2299663537,-0.2399446298,-0.2470360643,-0.2511439148,-0.2523898262,-0.2512253155,-0.2483531560,-0.2444975035,-0.2401965389,-0.2357628616,-0.2314064469,-0.2273810149,-0.2240044790,-0.2215368007,-0.2200470610,-0.2194077129,-0.2194267489,-0.2199993702,-0.2211404040,-0.2228743252,-0.2251013242,-0.2275723769,-0.2299909867,-0.2321374351,-0.2338920352,-0.2351413307,-0.2356785274,-0.2352154107,-0.2335090481,-0.2304896127,-0.2262640200,-0.2209897534,-0.2147482742,-0.2075471425,-0.1994515503,-0.1907184788,-0.1817932046,-0.1731542615,-0.1651414223,-0.1579132382,-0.1515558542,-0.1462298079,-0.1422027696,-0.1397124606,-0.1387628540,-0.1390248729,-0.1399306298,-0.1409043321,-0.1415735708,-0.1418242625,-0.1416995530,-0.1412720043,-0.1406119879,-0.1398595957,-0.1392965944,-0.1392996982,-0.1401627180
211_AXCPT19_TK,AX correct probe response,Channel-1 HbO,1132131.5100193024,1147131.5100193024,0.0569522548,0.0517871870,0.0467522336,0.0415467354,0.0358109783,0.0293409120,0.0222096613,0.0147017255,0.0071109341,-0.0004447230,-0.0080522229,-0.0158743174,-0.0239947845,-0.0323709112,-0.0409155515,-0.0496168592,-0.0585631687,-0.0678181919,-0.0772387857,-0.0863985758,-0.0947065679,-0.1016662120,-0.1071107565,-0.1112501393,-0.1144992707,-0.1172263853,-0.1196053465,-0.1216557303,-0.1234128079,-0.1250749001,-0.1269899057,-0.1294814836,-0.1326608633,-0.1363766937,-0.1403353220,-0.1442945825,-0.1481811945,-0.1520449503,-0.1559044114,-0.1596298866,-0.1629680847,-0.1656899337,-0.1677358503,-0.1692246877,-0.1703131244,-0.1710349328,-0.1712650970,-0.1708412974,-0.1697459617,-0.1681948409,-0.1665413352,-0.1650598145,-0.1637789246,-0.1624952478,-0.1609557273,-0.1590665830,-0.1569605594,-0.1548707050,-0.1529262306,-0.1510454010,-0.1490136081,-0.1466934254,-0.1442094822,-0.1419536151,-0.1403914763,-0.1398144902,-0.1402138427,-0.1413444778,-0.1429072917,-0.1446980535,-0.1466062760,-0.1484874018,-0.1500515398,-0.1508928256,-0.1506584691,-0.1492364758,-0.1468086260,-0.1437093529,-0.1401912044,-0.1362753992,-0.1317944143,-0.1265890070,-0.1207078478,-0.1144480755,-0.1081997096,-0.1022237482,-0.0965442500,-0.0910359155,-0.0856415206,-0.0805540644,-0.0762121675,-0.0731016474,-0.0715156106,-0.0714446986,-0.0726497939,-0.0748306873,-0.0777384146,-0.0811341939,-0.0846465680,-0.0876846584,-0.0895249406,-0.0895494550,-0.0874883572,-0.0834947785,-0.0779917697,-0.0714054749,-0.0639787683,-0.0557838567,-0.0469035322,-0.0376304097,-0.0285124258,-0.0201881453,-0.0131295003,-0.0074817901,-0.0031066904,0.0002153484,0.0025786367,0.0039012822,0.0040611367,0.0030883468,0.0012443431,-0.0010790388,-0.0035637940,-0.0061100213,-0.0087901173,-0.0116400611,-0.0144638531,-0.0168195911,-0.0182158382,-0.0183993585,-0.0175392097
211_AXCPT19_TK,AX correct probe response,Channel-1 HbO,1137636.5339756012,1152636.5339756012,-0.1697459617,-0.1681948409,-0.1665413352,-0.1650598145,-0.1637789246,-0.1624952478,-0.1609557273,-0.1590665830,-0.1569605594,-0.1548707050,-0.1529262306,-0.1510454010,-0.1490136081,-0.1466934254,-0.1442094822,-0.1419536151,-0.1403914763,-0.1398144902,-0.1402138427,-0.1413444778,-0.1429072917,-0.1446980535,-0.1466062760,-0.1484874018,-0.1500515398,-0.1508928256,-0.1506584691,-0.1492364758,-0.1468086260,-0.1437093529,-0.1401912044,-0.1362753992,-0.1317944143,-0.1265890070,-0.1207078478,-0.1144480755,-0.1081997096,-0.1022237482,-0.0965442500,-0.0910359155,-0.0856415206,-0.0805540644,-0.0762121675,-0.0731016474,-0.0715156106,-0.0714446986,-0.0726497939,-0.0748306873,-0.0777384146,-0.0811341939,-0.0846465680,-0.0876846584,-0.0895249406,-0.0895494550,-0.0874883572,-0.0834947785,-0.0779917697,-0.0714054749,-0.0639787683,-0.0557838567,-0.0469035322,-0.0376304097,-0.0285124258,-0.0201881453,-0.0131295003,-0.0074817901,-0.0031066904,0.0002153484,0.0025786367,0.0039012822,0.0040611367,0.0030883468,0.0012443431,-0.0010790388,-0.0035637940,-0.0061100213,-0.0087901173,-0.0116400611,-0.0144638531,-0.0168195911,-0.0182158382,-0.0183993585,-0.0175392097,-0.0161608171,-0.0148619504,-0.0140122205,-0.0136383913,-0.0135500154,-0.0135976885,-0.0138711596,-0.0146895101,-0.0164030597,-0.0191782089,-0.0229298867,-0.0274306453,-0.0324883453,-0.0380356409,-0.0440517259,-0.0503906688,-0.0566798753,-0.0623963883,-0.0670921418,-0.0706230801,-0.0732132642,-0.0752945142,-0.0772371872,-0.0791683148,-0.0809948558,-0.0825992039,-0.0840550478,-0.0856897956,-0.0879306636,-0.0910468115,-0.0949823433,-0.0993988490,-0.1038958982,-0.1082593429,-0.1125654322,-0.1170739699,-0.1220091435,-0.1274045944,-0.1331195594,-0.1389940114,-0.1450025410,-0.1512614321,-0.1578672757,-0.1647004904,-0.1713615373,-0.1773040676,-0.1820897283,-0.1855968390
211_AXCPT19_TK,AX correct probe response,Channel-1 HbO,1181906.1019420624,1196906.1019420624,-0.3012816203,-0.3619322333,-0.4150227642,-0.4576285682,-0.4881529095,-0.5064786040,-0.5137429945,-0.5119167610,-0.5033878629,-0.4906439127,-0.4760273816,-0.4614938859,-0.4483675274,-0.4371879242,-0.4277533718,-0.4193631143,-0.4111420865,-0.4022926414,-0.3922028090,-0.3804760289,-0.3669915984,-0.3520222731,-0.3363181966,-0.3210259742,-0.3074059383,-0.2964724439,-0.2887540360,-0.2842828273,-0.2827547095,-0.2837002105,-0.2865658297,-0.2907478710,-0.2956687456,-0.3009026445,-0.3062621489,-0.3117621666,-0.3174847662,-0.3234607863,-0.3296550315,-0.3360286455,-0.3425779318,-0.3492890209,-0.3560554562,-0.3626544887,-0.3688148920,-0.3743093555,-0.3789759919,-0.3826544404,-0.3851241408,-0.3861310388,-0.3854880313,-0.3831483793,-0.3791722746,-0.3736197758,-0.3664860829,-0.3577539950,-0.3475199965,-0.3360710980,-0.3238284130,-0.3112030990,-0.2984960602,-0.2859234286,-0.2737229858,-0.2622130283,-0.2517154911,-0.2423946585,-0.2341599771,-0.2267318025,-0.2198277485,-0.2133211470,-0.2072434361,-0.2016464560,-0.1964718404,-0.1915575602,-0.1867772454,-0.1821840421,-0.1780195240,-0.1745711273,-0.1720037288,-0.1703029047,-0.1693523349,-0.1690451031,-0.1693007698,-0.1699599183,-0.1706660581,-0.1708740272,-0.1700219122,-0.1677706964,-0.1641459655,-0.1594701901,-0.1541383350,-0.1484174233,-0.1424151255,-0.1362129751,-0.1300267630,-0.1242343202,-0.1192294142,-0.1152230807,-0.1121590768,-0.1098088417,-0.1079699589,-0.1066124835,-0.1058595856,-0.1058354639,-0.1065282611,-0.1077856507,-0.1094309917,-0.1113755652,-0.1135991270,-0.1159987927,-0.1182490234,-0.1198207855,-0.1201824997,-0.1190670831,-0.1166232705,-0.1133289535,-0.1097195475,-0.1061295094,-0.1026202837,-0.0991168947,-0.0956312339,-0.0923913408,-0.0897617701,-0.0880090132,-0.0870990701,-0.0866870355,-0.0863135511,-0.0856821329,-0.0848312985,-0.0840806376,-0.0838000113
211_AXCPT19_TK,AX correct probe response,Channel-1 HbO,1191425.2059459686,1206425.2059459686,-0.1699599183,-0.1706660581,-0.1708740272,-0.1700219122,-0.1677706964,-0.1641459655,-0.1594701901,-0.1541383350,-0.1484174233,-0.1424151255,-0.1362129751,-0.1300267630,-0.1242343202,-0.1192294142,-0.1152230807,-0.1121590768,-0.1098088417,-0.1079699589,-0.1066124835,-0.1058595856,-0.1058354639,-0.1065282611,-0.1077856507,-0.1094309917,-0.1113755652,-0.1135991270,-0.1159987927,-0.1182490234,-0.1198207855,-0.1201824997,-0.1190670831,-0.1166232705,-0.1133289535,-0.1097195475,-0.1061295094,-0.1026202837,-0.0991168947,-0.0956312339,-0.0923913408,-0.0897617701,-0.0880090132,-0.0870990701,-0.0866870355,-0.0863135511,-0.0856821329,-0.0848312985,-0.0840806376,-0.0838000113,-0.0841846531,-0.0851932831,-0.0866657725,-0.0885023415,-0.0907408472,-0.0934534661,-0.0965468485,-0.0996416862,-0.1021489686,-0.1035201576,-0.1035259048,-0.1023758360,-0.1005803956,-0.0986421117,-0.0967902693,-0.0949268810,-0.0927964977,-0.0902480194,-0.0873931434,-0.0845345418,-0.0819197283,-0.0795200562,-0.0770046334,-0.0739262077,-0.0699904939,-0.0652223974,-0.0599149458,-0.0544161057,-0.0489283635,-0.0434589066,-0.0379190521,-0.0322489299,-0.0264279193,-0.0203505702,-0.0136955565,-0.0059368107,0.0034668989,0.0148057335,0.0279531809,0.0424303447,0.0576592222,0.0732150826,0.0889055995,0.1046521680,0.1202955235,0.1355038188,0.1498804108,0.1631937168,0.1755388157,0.1872924473,0.1988756695,0.2104736880,0.2219009010,0.2327008281,0.2423939609,0.2506866677,0.2575123805,0.2629216818,0.2669574516,0.2696571639,0.2711925139,0.2720046715,0.2727801257,0.2742363266,0.2768312729,0.2805875835,0.2851678685,0.2901566650,0.2953425167,0.3008043669,0.3067560202,0.3132610187,0.3200195810,0.3263936517,0.3316612298,0.3353115908,0.3371795191,0.3373570522,0.3359788726,0.3330582939,0.3285043513,0.3222903985,0.3146108906
211_AXCPT19_TK,AX correct probe response,Channel-1 HbO,1201517.7500247955,1216517.7500247955,0.0576592222,0.0732150826,0.0889055995,0.1046521680,0.1202955235,0.1355038188,0.1498804108,0.1631937168,0.1755388157,0.1872924473,0.1988756695,0.2104736880,0.2219009010,0.2327008281,0.2423939609,0.2506866677,0.2575123805,0.2629216818,0.2669574516,0.2696571639,0.2711925139,0.2720046715,0.2727801257,0.2742363266,0.2768312729,0.2805875835,0.2851678685,0.2901566650,0.2953425167,0.3008043669,0.3067560202,0.3132610187,0.3200195810,0.3263936517,0.3316612298,0.3353115908,0.3371795191,0.3373570522,0.3359788726,0.3330582939,0.3285043513,0.3222903985,0.3146108906,0.3058868226,0.2966226030,0.2872474352,0.2780902394,0.2695098314,0.2620410811,0.2563894228,0.2532281288,0.2529086136,0.2552804905,0.2597657897,0.2656456379,0.2723528519,0.2795770304,0.2871451231,0.2948011492,0.3020773238,0.3083745955,0.3131913396,0.3163141732,0.3178290459,0.3179634295,0.3169018338,0.3147322019,0.3115550416,0.3076298828,0.3034038839,0.2993779666,0.2959036281,0.2930697671,0.2907772119,0.2889375623,0.2876214560,0.2870312716,0.2873258610,0.2884518622,0.2901427942,0.2921069406,0.2942514444,0.2967553060,0.2999267002,0.3039388527,0.3086308252,0.3135219230,0.3180223731,0.3216684079,0.3242162695,0.3255699891,0.3256571777,0.3243997731,0.3218205471,0.3181748875,0.3139564085,0.3097246374,0.3058445383,0.3023155731,0.2988312971,0.2950386364,0.2908002513,0.2862678060,0.2817254413,0.2773243171,0.2729105380,0.2680948467,0.2625259614,0.2561591668,0.2493190044,0.2425094672,0.2360884351,0.2300128124,0.2238270721,0.2168970601,0.2087090943,0.1990312246,0.1878659900,0.1752790436,0.1612699938,0.1458108989,0.1290238555,0.1113346355,0.0934546450,0.0761752034,0.0600919650,0.0454396928,0.0321572428,0.0201297310,0.0094135156,0.0002744547
211_AXCPT19_TK,AX correct probe response,Channel-1 HbO,1263678.6451339722,1278678.6451339722,-0.0305565554,-0.0261613286,-0.0217978045,-0.0176180665,-0.0136404287,-0.0097381675,-0.0057664822,-0.0016984203,0.0023725610,0.0063813125,0.0104543846,0.0149281420,0.0201807934,0.0263836522,0.0333527728,0.0406256473,0.0477122130,0.0543269945,0.0604375399,0.0661177209,0.0713401177,0.0758861552,0.0794533235,0.0818637853,0.0831936594,0.0837184541,0.0837198735,0.0833100888,0.0824217144,0.0809674588,0.0790194478,0.0768533336,0.0748352921,0.0732689944,0.0723510698,0.0722698782,0.0733271053,0.0759301431,0.0804169564,0.0868212150,0.0947563262,0.1035254038,0.1123827384,0.1207486456,0.1282338298,0.1344966391,0.1390995564,0.1415415562,0.1414851448,0.1390021825,0.1346293940,0.1291689400,0.1233479845,0.1175495245,0.1117821229,0.1058730978,0.0996998640,0.0932798427,0.0866897255,0.0799332068,0.0729140735,0.0655643007,0.0580140243,0.0506362353,0.0438985243,0.0381071992,0.0332277869,0.0289311588,0.0248373338,0.0207605293,0.0167688995,0.0130304362,0.0095764765,0.0061785117,0.0024526717,-0.0018828450,-0.0068020781,-0.0119715782,-0.0169461101,-0.0214072940,-0.0252660618,-0.0285681420,-0.0313134532,-0.0333608275,-0.0344952878,-0.0345903327,-0.0337141949,-0.0320715418,-0.0298227555,-0.0269417890,-0.0232401801,-0.0185423202,-0.0128668111,-0.0064504831,0.0004150980,0.0075890851,0.0151460064,0.0232410729,0.0318759630,0.0407475311,0.0493077055,0.0569907791,0.0634264313,0.0684868685,0.0721688342,0.0744489688,0.0752657324,0.0746472348,0.0728470997,0.0703370648,0.0676337668,0.0650793425,0.0627465283,0.0605486925,0.0584592970,0.0566498499,0.0554300458,0.0550368168,0.0554452194,0.0563708642,0.0574740638,0.0585916834,0.0598009797,0.0612639840,0.0629679738,0.0645608866,0.0654246377,0.0649468840,0.0627940361,0.0590039835,0.0538699506
211_AXCPT19_TK,AX correct probe response,Channel-1 HbO,1273197.7491378784,1288197.7491378784,-0.0333608275,-0.0344952878,-0.0345903327,-0.0337141949,-0.0320715418,-0.0298227555,-0.0269417890,-0.0232401801,-0.0185423202,-0.0128668111,-0.0064504831,0.0004150980,0.0075890851,0.0151460064,0.0232410729,0.0318759630,0.0407475311,0.0493077055,0.0569907791,0.0634264313,0.0684868685,0.0721688342,0.0744489688,0.0752657324,0.0746472348,0.0728470997,0.0703370648,0.0676337668,0.0650793425,0.0627465283,0.0605486925,0.0584592970,0.0566498499,0.0554300458,0.0550368168,0.0554452194,0.0563708642,0.0574740638,0.0585916834,0.0598009797,0.0612639840,0.0629679738,0.0645608866,0.0654246377,0.0649468840,0.0627940361,0.0590039835,0.0538699506,0.0477399401,0.0409041574,0.0336432750,0.0263457341,0.0195370231,0.0137488979,0.0092977368,0.0061352117,0.0039070651,0.0021952771,0.0007610443,-0.0003890925,-0.0011461518,-0.0015314342,-0.0018322395,-0.0025194699,-0.0040047973,-0.0064338572,-0.0096755420,-0.0135061208,-0.0178395554,-0.0228172138,-0.0286777924,-0.0355109169,-0.0430918111,-0.0509211486,-0.0584332066,-0.0652085549,-0.0710278788,-0.0757491789,-0.0791525940,-0.0809148762,-0.0807506880,-0.0786112950,-0.0747705745,-0.0697108713,-0.0638938508,-0.0576013614,-0.0509672612,-0.0441654401,-0.0375916773,-0.0318683770,-0.0276420734,-0.0253228043,-0.0249599494,-0.0263371411,-0.0292112806,-0.0335155538,-0.0393649203,-0.0468636479,-0.0558854948,-0.0660083138,-0.0766458937,-0.0872681639,-0.0975391342,-0.1072737868,-0.1162764119,-0.1242271050,-0.1307345983,-0.1355317890,-0.1386687354,-0.1405411175,-0.1417141134,-0.1426722860,-0.1436820710,-0.1448545471,-0.1463430363,-0.1485026503,-0.1518492282,-0.1568093019,-0.1634311111,-0.1712562748,-0.1794267532,-0.1869480155,-0.1929360207,-0.1966951342,-0.1976236973,-0.1951085610,-0.1885835268,-0.1777815114,-0.1630372078,-0.1454188863,-0.1265556431
211_AXCPT19_TK,AX correct probe response,Channel-1 HbO,1278244.0211772919,1293244.0211772919,0.0649468840,0.0627940361,0.0590039835,0.0538699506,0.0477399401,0.0409041574,0.0336432750,0.0263457341,0.0195370231,0.0137488979,0.0092977368,0.0061352117,0.0039070651,0.0021952771,0.0007610443,-0.0003890925,-0.0011461518,-0.0015314342,-0.0018322395,-0.0025194699,-0.0040047973,-0.0064338572,-0.0096755420,-0.0135061208,-0.0178395554,-0.0228172138,-0.0286777924,-0.0355109169,-0.0430918111,-0.0509211486,-0.0584332066,-0.0652085549,-0.0710278788,-0.0757491789,-0.0791525940,-0.0809148762,-0.0807506880,-0.0786112950,-0.0747705745,-0.0697108713,-0.0638938508,-0.0576013614,-0.0509672612,-0.0441654401,-0.0375916773,-0.0318683770,-0.0276420734,-0.0253228043,-0.0249599494,-0.0263371411,-0.0292112806,-0.0335155538,-0.0393649203,-0.0468636479,-0.0558854948,-0.0660083138,-0.0766458937,-0.0872681639,-0.0975391342,-0.1072737868,-0.1162764119,-0.1242271050,-0.1307345983,-0.1355317890,-0.1386687354,-0.1405411175,-0.1417141134,-0.1426722860,-0.1436820710,-0.1448545471,-0.1463430363,-0.1485026503,-0.1518492282,-0.1568093019,-0.1634311111,-0.1712562748,-0.1794267532,-0.1869480155,-0.1929360207,-0.1966951342,-0.1976236973,-0.1951085610,-0.1885835268,-0.1777815114,-0.1630372078,-0.1454188863,-0.1265556431,-0.1082362839,-0.0920064061,-0.0789519802,-0.0696929258,-0.0644650309,-0.0631543239,-0.0652711339,-0.0699711109,-0.0762076314,-0.0829681859,-0.0894458666,-0.0950302254,-0.0991584048,-0.1011956458,-0.1004772016,-0.0964877486,-0.0890289998,-0.0782410572,-0.0644929998,-0.0482920148,-0.0303325703,-0.0116539029,0.0062605249,0.0216047346,0.0325923719,0.0378347252,0.0365503898,0.0285526607,0.0141241102,-0.0060834130,-0.0310980353,-0.0597068012,-0.0906156217,-0.1226261482,-0.1547078341,-0.1859211009,-0.2152858091,-0.2417350046,-0.2642027978,-0.2817701265,-0.2937581156,-0.2997441509,-0.2995695443,-0.2933886856
211_AXCPT19_TK,AX correct probe response,Channel-1 HbO,1303934.1330528259,1318934.1330528259,0.0711174412,0.0728062469,0.0753109316,0.0786360212,0.0822454591,0.0850389041,0.0856402387,0.0828520193,0.0760241994,0.0651617646,0.0507616337,0.0335175243,0.0140985653,-0.0068648040,-0.0286392610,-0.0502779232,-0.0706891542,-0.0888806569,-0.1042333953,-0.1166192664,-0.1262819822,-0.1335831577,-0.1388044443,-0.1421176067,-0.1436802814,-0.1437130372,-0.1424439237,-0.1399550310,-0.1360845343,-0.1304997684,-0.1229079383,-0.1132458987,-0.1016979752,-0.0885462851,-0.0740145694,-0.0582575347,-0.0414974847,-0.0241650649,-0.0068818153,0.0097361764,0.0252977233,0.0396989066,0.0529872906,0.0651484377,0.0759972736,0.0852670679,0.0928115855,0.0987410850,0.1033840319,0.1071186754,0.1102268989,0.1129016192,0.1153876579,0.1180958202,0.1215482963,0.1261611632,0.1320138597,0.1387915300,0.1459672821,0.1530963824,0.1600046718,0.1667447546,0.1733689270,0.1797036366,0.1853183648,0.1897274934,0.1926628728,0.1941999497,0.1946439699,0.1942582112,0.1930334235,0.1906835109,0.1868785112,0.1815246755,0.1748718214,0.1673782069,0.1594413249,0.1511997778,0.1425687323,0.1334843122,0.1241491423,0.1150705639,0.1068431306,0.0998034414,0.0937873530,0.0881798327,0.0822415673,0.0754792287,0.0678079425,0.0594260743,0.0505180686,0.0410126246,0.0305894181,0.0189310602,0.0060098343,-0.0078171420,-0.0219662357,-0.0359188072,-0.0494344785,-0.0625302740,-0.0752620267,-0.0875115530,-0.0989617303,-0.1092754472,-0.1183342166,-0.1263365972,-0.1336542755,-0.1405442521,-0.1469405182,-0.1524834756,-0.1567670601,-0.1596289360,-0.1612701051,-0.1621116823,-0.1625054170,-0.1625262071,-0.1619971659,-0.1607214694,-0.1587497542,-0.1564799403,-0.1545077280,-0.1533434575,-0.1532062142,-0.1540223807,-0.1555888725,-0.1577381344,-0.1603484935,-0.1631951991,-0.1658026147,-0.1674669060,-0.1674780964
211_AXCPT19_TK,AX correct probe response,Channel-1 HbO,1483535.5391502380,1498535.5391502380,0.1707108501,0.1795935195,0.1888853531,0.1984194382,0.2076917732,0.2161171218,0.2233083294,0.2291896513,0.2338983970,0.2375856147,0.2402903599,0.2419881141,0.2427501611,0.2428490327,0.2426978441,0.2426537163,0.2428331925,0.2430925703,0.2431912197,0.2429954225,0.2425570593,0.2420218231,0.2414647582,0.2408130951,0.2399431965,0.2388746252,0.2378850764,0.2374284414,0.2378896277,0.2393418951,0.2414924099,0.2438637227,0.2460659286,0.2479517471,0.2495543487,0.2508733565,0.2516915675,0.2515944398,0.2501990115,0.2474115227,0.2435078688,0.2389687945,0.2341685059,0.2291197864,0.2234599855,0.2166936417,0.2085127955,0.1989773554,0.1884639233,0.1774531068,0.1663283720,0.1553447296,0.1447751026,0.1350778675,0.1269119984,0.1209499380,0.1175832479,0.1167064073,0.1177459767,0.1199434552,0.1227079763,0.1258085414,0.1292999155,0.1332507689,0.1374664435,0.1414060788,0.1443502246,0.1456790983,0.1450512758,0.1423696348,0.1375783123,0.1304541225,0.1205767690,0.1075416562,0.0912886094,0.0723268314,0.0517109851,0.0307871865,0.0108752338,-0.0069102688,-0.0216263726,-0.0323767651,-0.0382868727,-0.0386714389,-0.0333259948,-0.0227532499,-0.0081328400,0.0089975455,0.0271703108,0.0452809605,0.0626196239,0.0786890295,0.0929830492,0.1049183801,0.1139845880,0.1199882188,0.1231902964,0.1242278257,0.1238660875,0.1227430665,0.1212722555,0.1197389579,0.1184612427,0.1178510166,0.1183184543,0.1201008682,0.1231685993,0.1273084629,0.1323283210,0.1382078413,0.1450602649,0.1529198478,0.1615074949,0.1701628244,0.1780191216,0.1843070361,0.1885747289,0.1906867510,0.1906259981,0.1882582534,0.1832547354,0.1752621487,0.1642173067,0.1505859568,0.1353565628,0.1197755896,0.1049665529,0.0916504912,0.0801128261,0.0703750019,0.0623951901
211_AXCPT19_TK,AX correct probe response,Channel-1 HbO,1489040.5631065369,1504040.5631065369,0.1884639233,0.1774531068,0.1663283720,0.1553447296,0.1447751026,0.1350778675,0.1269119984,0.1209499380,0.1175832479,0.1167064073,0.1177459767,0.1199434552,0.1227079763,0.1258085414,0.1292999155,0.1332507689,0.1374664435,0.1414060788,0.1443502246,0.1456790983,0.1450512758,0.1423696348,0.1375783123,0.1304541225,0.1205767690,0.1075416562,0.0912886094,0.0723268314,0.0517109851,0.0307871865,0.0108752338,-0.0069102688,-0.0216263726,-0.0323767651,-0.0382868727,-0.0386714389,-0.0333259948,-0.0227532499,-0.0081328400,0.0089975455,0.0271703108,0.0452809605,0.0626196239,0.0786890295,0.0929830492,0.1049183801,0.1139845880,0.1199882188,0.1231902964,0.1242278257,0.1238660875,0.1227430665,0.1212722555,0.1197389579,0.1184612427,0.1178510166,0.1183184543,0.1201008682,0.1231685993,0.1273084629,0.1323283210,0.1382078413,0.1450602649,0.1529198478,0.1615074949,0.1701628244,0.1780191216,0.1843070361,0.1885747289,0.1906867510,0.1906259981,0.1882582534,0.1832547354,0.1752621487,0.1642173067,0.1505859568,0.1353565628,0.1197755896,0.1049665529,0.0916504912,0.0801128261,0.0703750019,0.0623951901,0.0561488545,0.0515661363,0.0484248502,0.0463434287,0.0449354019,0.0440282439,0.0437719216,0.0445365275,0.0466429927,0.0500892881,0.0544634479,0.0591250226,0.0635399827,0.0675401210,0.0713434279,0.0753391664,0.0797889648,0.0846468498,0.0896119470,0.0943451866,0.0986643331,0.1025782045,0.1061644659,0.1094183681,0.1122218732,0.1144751420,0.1162786129,0.1180005203,0.1201505682,0.1231233636,0.1269835226,0.1314568713,0.1361393577,0.1407608168,0.1453131940,0.1499721031,0.1548867619,0.1600055391,0.1650882319,0.1699075992,0.1744741861,0.1790955681,0.1842078980,0.1900716367,0.1965203667,0.2029395151,0.2085040373,0.2125228893
211_AXCPT19_TK,AX correct probe response,Channel-1 HbO,1508193.4590339661,1523193.4590339661,-0.1860484248,-0.1717334136,-0.1580713994,-0.1455385843,-0.1343518323,-0.1245000766,-0.1158986293,-0.1085353099,-0.1024731456,-0.0977111855,-0.0940520171,-0.0911193519,-0.0885248487,-0.0860415901,-0.0836235450,-0.0812509976,-0.0787579753,-0.0758217257,-0.0721509765,-0.0677411219,-0.0629955157,-0.0586012292,-0.0552427243,-0.0533634921,-0.0531338212,-0.0546252030,-0.0580486613,-0.0638564635,-0.0725892139,-0.0845492260,-0.0995285144,-0.1167772670,-0.1352246512,-0.1538014505,-0.1716554217,-0.1881418272,-0.2026666606,-0.2145881151,-0.2233259419,-0.2286575821,-0.2310269443,-0.2316429427,-0.2322502694,-0.2346669146,-0.2403316025,-0.2500697291,-0.2641185920,-0.2822832436,-0.3040486567,-0.3285952803,-0.3548202590,-0.3814786132,-0.4074324629,-0.4318706381,-0.4543528834,-0.4746681512,-0.4926535334,-0.5081335907,-0.5210093611,-0.5313873062,-0.5396007853,-0.5460733988,-0.5511255186,-0.5548823526,-0.5573563579,-0.5586378068,-0.5590373111,-0.5590533523,-0.5591842072,-0.5597335555,-0.5607418474,-0.5620449058,-0.5633424419,-0.5641540479,-0.5636681201,-0.5606268945,-0.5533910529,-0.5402029496,-0.5195333729,-0.4903493232,-0.4522280024,-0.4053925986,-0.3507961823,-0.2902796597,-0.2266776195,-0.1636656915,-0.1052365288,-0.0549476212,-0.0152773429,0.0126443306,0.0289022016,0.0344306376,0.0306601373,0.0193389156,0.0025023194,-0.0175760622,-0.0385852500,-0.0585128690,-0.0759568208,-0.0902287104,-0.1012053126,-0.1090707473,-0.1141355394,-0.1167991048,-0.1175748148,-0.1170467914,-0.1157172664,-0.1138440394,-0.1114037160,-0.1082147099,-0.1041187678,-0.0990655321,-0.0930304300,-0.0858597417,-0.0772126758,-0.0666840176,-0.0540336587,-0.0393493676,-0.0230105261,-0.0054897533,0.0128302444,0.0316767830,0.0507500201,0.0695732594,0.0874957551,0.1038801003,0.1183292681,0.1307680904,0.1413184777,0.1500705218,0.1569353143
211_AXCPT19_TK,AX correct probe response,Channel-1 HbO,1517712.5630378723,1532712.5630378723,-0.2902796597,-0.2266776195,-0.1636656915,-0.1052365288,-0.0549476212,-0.0152773429,0.0126443306,0.0289022016,0.0344306376,0.0306601373,0.0193389156,0.0025023194,-0.0175760622,-0.0385852500,-0.0585128690,-0.0759568208,-0.0902287104,-0.1012053126,-0.1090707473,-0.1141355394,-0.1167991048,-0.1175748148,-0.1170467914,-0.1157172664,-0.1138440394,-0.1114037160,-0.1082147099,-0.1041187678,-0.0990655321,-0.0930304300,-0.0858597417,-0.0772126758,-0.0666840176,-0.0540336587,-0.0393493676,-0.0230105261,-0.0054897533,0.0128302444,0.0316767830,0.0507500201,0.0695732594,0.0874957551,0.1038801003,0.1183292681,0.1307680904,0.1413184777,0.1500705218,0.1569353143,0.1617053246,0.1642702998,0.1647996011,0.1637380793,0.1616208993,0.1588556344,0.1556463314,0.1521110456,0.1484686587,0.1451115967,0.1424799157,0.1408097227,0.1399422651,0.1393644054,0.1384783276,0.1369088770,0.1346373868,0.1318963302,0.1289308238,0.1258260790,0.1225467825,0.1191465008,0.1159473358,0.1135150783,0.1124171428,0.1129096088,0.1147633915,0.1173552218,0.1199526239,0.1219823564,0.1231156625,0.1231701412,0.1219764413,0.1193783212,0.1153932311,0.1103826881,0.1050505024,0.1002158152,0.0964742592,0.0939620735,0.0923933500,0.0913387077,0.0905234572,0.0899307369,0.0896676369,0.0897306279,0.0898768160,0.0897155864,0.0889384624,0.0874849610,0.0855060392,0.0831547364,0.0803731062,0.0768602110,0.0722609280,0.0664207546,0.0594977858,0.0518433099,0.0437326041,0.0351378837,0.0257142941,0.0150022801,0.0026742434,-0.0113587575,-0.0270262597,-0.0442542082,-0.0630158118,-0.0831683178,-0.1041563622,-0.1248043731,-0.1433840918,-0.1579793123,-0.1669953394,-0.1695655289,-0.1656727852,-0.1560051400,-0.1417223223,-0.1242957900,-0.1054494686,-0.0870927117,-0.0711138988,-0.0590411642,-0.0517452516
211_AXCPT19_TK,AX correct probe response,Channel-1 HbO,1528263.8590335846,1543263.8590335846,0.0896676369,0.0897306279,0.0898768160,0.0897155864,0.0889384624,0.0874849610,0.0855060392,0.0831547364,0.0803731062,0.0768602110,0.0722609280,0.0664207546,0.0594977858,0.0518433099,0.0437326041,0.0351378837,0.0257142941,0.0150022801,0.0026742434,-0.0113587575,-0.0270262597,-0.0442542082,-0.0630158118,-0.0831683178,-0.1041563622,-0.1248043731,-0.1433840918,-0.1579793123,-0.1669953394,-0.1695655289,-0.1656727852,-0.1560051400,-0.1417223223,-0.1242957900,-0.1054494686,-0.0870927117,-0.0711138988,-0.0590411642,-0.0517452516,-0.0493667844,-0.0514942205,-0.0574495752,-0.0664841953,-0.0777901584,-0.0904047115,-0.1031578853,-0.1147373887,-0.1238186084,-0.1291487348,-0.1295392917,-0.1238432955,-0.1110279084,-0.0903629534,-0.0616276041,-0.0252058813,0.0179606671,0.0664648166,0.1184661163,0.1716877960,0.2235204720,0.2713453212,0.3130038422,0.3471766755,0.3734735461,0.3922383899,0.4042531611,0.4105426066,0.4123271055,0.4109953454,0.4079568021,0.4043764309,0.4009392407,0.3978126908,0.3948357045,0.3917839634,0.3885235455,0.3849914790,0.3811007666,0.3767286339,0.3718532006,0.3667335944,0.3619581023,0.3582835389,0.3563547283,0.3564881697,0.3586463846,0.3625568666,0.3678132216,0.3738549820,0.3798815886,0.3848595817,0.3877286625,0.3877257793,0.3846078602,0.3786177743,0.3702346971,0.3599010804,0.3479110693,0.3344820003,0.3198627522,0.3043296937,0.2880652113,0.2710510997,0.2531106495,0.2340874960,0.2140047544,0.1930632221,0.1714849118,0.1493467711,0.1265657876,0.1030592190,0.0789334784,0.0545307896,0.0302950859,0.0065729432,-0.0164775717,-0.0387897452,-0.0601971956,-0.0803297255,-0.0986956878,-0.1148912735,-0.1287656305,-0.1403981660,-0.1499140396,-0.1573173237,-0.1624970686,-0.1654007728,-0.1662233633,-0.1654389641,-0.1636393277,-0.1613205227
211_AXCPT19_TK,AX correct probe response,Channel-1 HbO,1608316.0820007324,1623316.0820007324,-0.2640418880,-0.2702286477,-0.2749626466,-0.2783717475,-0.2804433142,-0.2812212412,-0.2810013478,-0.2803342477,-0.2798058102,-0.2797669595,-0.2802239536,-0.2809584835,-0.2817688041,-0.2826364793,-0.2836935022,-0.2850476125,-0.2866448485,-0.2882921204,-0.2898041455,-0.2911222450,-0.2922748873,-0.2932061292,-0.2936342232,-0.2930711761,-0.2909801334,-0.2869258464,-0.2805921899,-0.2716839130,-0.2598457058,-0.2446974065,-0.2259561921,-0.2035302684,-0.1775005753,-0.1480282347,-0.1153071134,-0.0796272617,-0.0414838484,-0.0016008706,0.0391816253,0.0800653315,0.1203633498,0.1594508189,0.1966933606,0.2314683236,0.2632812588,0.2918641015,0.3171564189,0.3391934314,0.3580232096,0.3737494305,0.3866602790,0.3972980913,0.4063625942,0.4144809219,0.4219977951,0.4289393272,0.4351637642,0.4405561711,0.4451104673,0.4488673117,0.4518108172,0.4538613328,0.4550017685,0.4554288231,0.4555780030,0.4559665128,0.4569380090,0.4584843416,0.4602908730,0.4619882378,0.4634253370,0.4647680268,0.4663638087,0.4684712771,0.4710501729,0.4737804710,0.4763056864,0.4785099524,0.4806177533,0.4830437787,0.4860842446,0.4896451762,0.4931973076,0.4959986148,0.4974288004,0.4972117524,0.4954042268,0.4921928413,0.4876645290,0.4817335840,0.4742857778,0.4654166967,0.4555623543,0.4454033845,0.4355808997,0.4263921289,0.4176686557,0.4089293196,0.3996991092,0.3897662807,0.3792105449,0.3682006221,0.3567117888,0.3443807747,0.3306389344,0.3150592348,0.2976806744,0.2790898466,0.2602014519,0.2418483962,0.2243965840,0.2076053747,0.1908213295,0.1733749439,0.1549225889,0.1355399611,0.1155457957,0.0951920660,0.0744398684,0.0529955136,0.0305915906,0.0073017438,-0.0163410622,-0.0395038718,-0.0613986564,-0.0816109776,-0.1002054892,-0.1175377377,-0.1339114864,-0.1493280845,-0.1634946854
211_AXCPT19_TK,AX correct probe response,Channel-1 HbO,1622766.7701244354,1637766.7701244354,-0.1002054892,-0.1175377377,-0.1339114864,-0.1493280845,-0.1634946854,-0.1760826719,-0.1870748456,-0.1969677993,-0.2066592804,-0.2170606081,-0.2286798143,-0.2414325555,-0.2547718705,-0.2680408459,-0.2808349038,-0.2931533730,-0.3052581694,-0.3173663679,-0.3294071856,-0.3409974780,-0.3516242726,-0.3608848075,-0.3686008948,-0.3747326358,-0.3791914708,-0.3817334745,-0.3820391221,-0.3799388724,-0.3756245838,-0.3696689781,-0.3628029976,-0.3555922257,-0.3482331123,-0.3405962759,-0.3324759393,-0.3238712293,-0.3150940670,-0.3066128396,-0.2987433508,-0.2914175118,-0.2841965963,-0.2765283399,-0.2680982559,-0.2590598200,-0.2499925707,-0.2416247823,-0.2345234529,-0.2289477635,-0.2249148105,-0.2223747335,-0.2213248075,-0.2217512118,-0.2234481683,-0.2258876886,-0.2282808335,-0.2298275111,-0.2300142029,-0.2287662408,-0.2263416384,-0.2230396015,-0.2189372558,-0.2138372754,-0.2074545921,-0.1997144537,-0.1909516799,-0.1818490081,-0.1731393635,-0.1652808695,-0.1583230383,-0.1520337235,-0.1461872974,-0.1408129750,-0.1362207158,-0.1327838214,-0.1306490226,-0.1295897019,-0.1290964931,-0.1286355996,-0.1278963226,-0.1268529112,-0.1256067021,-0.1241515736,-0.1222545617,-0.1195395740,-0.1157130023,-0.1107644828,-0.1049772045,-0.0987238842,-0.0922035568,-0.0853192561,-0.0777839979,-0.0693847873,-0.0602234702,-0.0507515310,-0.0415582512,-0.0330626265,-0.0253257107,-0.0181000812,-0.0110722296,-0.0041303983,0.0025349413,0.0085777265,0.0137810732,0.0182693438,0.0225019283,0.0270573198,0.0323494573,0.0384636602,0.0452157748,0.0523666073,0.0598101994,0.0675968713,0.0757946488,0.0843218236,0.0929119523,0.1012620497,0.1092452853,0.1170028089,0.1248186099,0.1328336593,0.1407721702,0.1478724156,0.1530976435,0.1555100581,0.1545837429,0.1502935106,0.1429718396,0.1330661759,0.1209829216,0.1071256226,0.0920615403
211_AXCPT19_TK,AX correct probe response,Channel-1 HbO,1850995.8879947662,1865995.8879947662,0.0356485174,0.0299035971,0.0254361043,0.0218673944,0.0188908746,0.0161556310,0.0132221750,0.0096724416,0.0052998211,0.0002127491,-0.0052542531,-0.0107821495,-0.0163013436,-0.0220489062,-0.0284149854,-0.0357165719,-0.0440770081,-0.0534776947,-0.0639029230,-0.0754264058,-0.0881442262,-0.1020082042,-0.1167137009,-0.1317516899,-0.1465990221,-0.1609010868,-0.1744932957,-0.1872464040,-0.1988858645,-0.2089570416,-0.2169812919,-0.2226961617,-0.2261981456,-0.2278694119,-0.2281454792,-0.2273126563,-0.2254875456,-0.2227785603,-0.2194878164,-0.2161742106,-0.2135076403,-0.2120219637,-0.2119537624,-0.2132753243,-0.2158814531,-0.2197741109,-0.2250837333,-0.2319015064,-0.2400657431,-0.2490821973,-0.2582440951,-0.2668670278,-0.2744690269,-0.2807692892,-0.2855362321,-0.2884475046,-0.2891052293,-0.2872138222,-0.2827913474,-0.2762416080,-0.2682119166,-0.2593369543,-0.2500588322,-0.2406406698,-0.2313365996,-0.2225585587,-0.2148715392,-0.2087847213,-0.2044841038,-0.2017052243,-0.1998400406,-0.1982135287,-0.1963526479,-0.1940769244,-0.1913855799,-0.1882780813,-0.1846665752,-0.1804255061,-0.1754959912,-0.1699145650,-0.1637079673,-0.1567358963,-0.1486340656,-0.1389406871,-0.1273485815,-0.1139154581,-0.0990682671,-0.0833834142,-0.0673033199,-0.0509914906,-0.0344114215,-0.0175535093,-0.0006287494,0.0159324346,0.0316780247,0.0463602808,0.0600045615,0.0727661535,0.0846726193,0.0954382645,0.1045055636,0.1113016569,0.1155251193,0.1172652616,0.1168965165,0.1148498246,0.1114389504,0.1068643251,0.1013600969,0.0953288462,0.0893317967,0.0839289836,0.0794872199,0.0761097191,0.0737460434,0.0723824375,0.0721429311,0.0732080789,0.0756014403,0.0790056268,0.0827734095,0.0861625738,0.0886447657,0.0900842330,0.0906856783,0.0907676920,0.0905311633,0.0899925027,0.0891132991,0.0879879339,0.0869123879
211_AXCPT19_TK,AX correct probe response,Channel-1 HbO,1860514.9919986725,1875514.9919986725,-0.1389406871,-0.1273485815,-0.1139154581,-0.0990682671,-0.0833834142,-0.0673033199,-0.0509914906,-0.0344114215,-0.0175535093,-0.0006287494,0.0159324346,0.0316780247,0.0463602808,0.0600045615,0.0727661535,0.0846726193,0.0954382645,0.1045055636,0.1113016569,0.1155251193,0.1172652616,0.1168965165,0.1148498246,0.1114389504,0.1068643251,0.1013600969,0.0953288462,0.0893317967,0.0839289836,0.0794872199,0.0761097191,0.0737460434,0.0723824375,0.0721429311,0.0732080789,0.0756014403,0.0790056268,0.0827734095,0.0861625738,0.0886447657,0.0900842330,0.0906856783,0.0907676920,0.0905311633,0.0899925027,0.0891132991,0.0879879339,0.0869123879,0.0862677873,0.0862974529,0.0869431803,0.0878783758,0.0887262129,0.0892992554,0.0896868570,0.0901413664,0.0908613587,0.0918458814,0.0929392249,0.0940226375,0.0951812405,0.0967003186,0.0988814550,0.1018025146,0.1052013729,0.1085918511,0.1115445879,0.1139322958,0.1159713432,0.1180437933,0.1204302237,0.1231390537,0.1259430565,0.1285692821,0.1308744489,0.1328703904,0.1345946257,0.1359453047,0.1366355628,0.1363274042,0.1348476546,0.1323175847,0.1290990787,0.1255976375,0.1220717779,0.1186014201,0.1152341621,0.1121673368,0.1097951049,0.1085630074,0.1087175282,0.1101266898,0.1123164960,0.1147081276,0.1168812343,0.1186802213,0.1201092254,0.1211103678,0.1214030856,0.1205214104,0.1180257507,0.1137216011,0.1077245094,0.1003406933,0.0918683949,0.0824796664,0.0722725940,0.0614326543,0.0503465019,0.0395570961,0.0295813613,0.0207277114,0.0130644674,0.0065666413,0.0013082395,-0.0024690475,-0.0044725118,-0.0045793356,-0.0029928230,-0.0001933012,0.0033017504,0.0071966765,0.0115164021,0.0164945415,0.0223461867,0.0290943716,0.0365688172,0.0445431174,0.0528596825,0.0614217626,0.0700628961
211_AXCPT19_TK,AX correct probe response,Channel-1 HbO,2029221.0381031036,2044221.0381031036,-0.2013957011,-0.1978390125,-0.1938758157,-0.1891619239,-0.1835108511,-0.1768003632,-0.1689480436,-0.1599863712,-0.1501541714,-0.1398885660,-0.1296885752,-0.1199463739,-0.1108706945,-0.1025376128,-0.0949916602,-0.0882835359,-0.0824048766,-0.0771952559,-0.0723316476,-0.0674376515,-0.0622434204,-0.0566736381,-0.0507930282,-0.0446655360,-0.0382629692,-0.0315137963,-0.0244596350,-0.0173816214,-0.0107585908,-0.0050529434,-0.0004770089,0.0030856152,0.0059501623,0.0083850955,0.0104211400,0.0118439615,0.0123528127,0.0117379504,0.0099366240,0.0069484574,0.0027158084,-0.0028956008,-0.0099798201,-0.0184384655,-0.0279274825,-0.0379473830,-0.0480018275,-0.0576946999,-0.0666968031,-0.0746453979,-0.0811108092,-0.0857053409,-0.0882830836,-0.0890834416,-0.0886844962,-0.0877728824,-0.0868887305,-0.0863161377,-0.0861655080,-0.0865536692,-0.0877222215,-0.0899880513,-0.0935665338,-0.0984206771,-0.1042639461,-0.1107173912,-0.1175005008,-0.1245077147,-0.1317208737,-0.1390516127,-0.1462580099,-0.1530026455,-0.1589974698,-0.1641064289,-0.1683113208,-0.1715762909,-0.1737477886,-0.1745965107,-0.1739851620,-0.1720357516,-0.1691538362,-0.1658740033,-0.1626392816,-0.1596748007,-0.1570313005,-0.1547464800,-0.1529862309,-0.1520395800,-0.1521653432,-0.1534232777,-0.1556331243,-0.1584945982,-0.1617759788,-0.1654244270,-0.1695105270,-0.1740579858,-0.1789021871,-0.1836856568,-0.1879806490,-0.1914262143,-0.1937604065,-0.1947376750,-0.1940434496,-0.1913217337,-0.1863221963,-0.1790571643,-0.1698319497,-0.1591088057,-0.1473074109,-0.1346943786,-0.1214332138,-0.1077365055,-0.0939779873,-0.0806498965,-0.0681879392,-0.0568086854,-0.0464898236,-0.0370993064,-0.0285591909,-0.0209063437,-0.0142124363,-0.0084603925,-0.0035061760,0.0008347578,0.0046513102,0.0078722620,0.0103341147,0.0119222037,0.0126636281,0.0126999490,0.0121730239
211_AXCPT19_TK,AX correct probe response,Channel-1 HbO,2050323.6300945282,2065323.6300945282,-0.0553804938,-0.0594891207,-0.0615318633,-0.0611251097,-0.0579709047,-0.0520114039,-0.0434651448,-0.0327148665,-0.0201575900,-0.0061519267,0.0089089903,0.0244938154,0.0399287722,0.0545361510,0.0678227768,0.0795771824,0.0898144221,0.0986307588,0.1060973528,0.1122802151,0.1173513008,0.1216686868,0.1257368641,0.1300697358,0.1350652613,0.1409847787,0.1480215649,0.1563539881,0.1661023666,0.1772134735,0.1893862333,0.2021452795,0.2150479989,0.2278809274,0.2406993371,0.2536846412,0.2669256445,0.2802816899,0.2934188135,0.3059655732,0.3176422607,0.3282584427,0.3375984455,0.3453194543,0.3509885915,0.3542630147,0.3550773964,0.3536882984,0.3505367869,0.3460231810,0.3403551625,0.3335814579,0.3257715013,0.3171761904,0.3082270451,0.2993636802,0.2908055177,0.2824314000,0.2738666070,0.2647237720,0.2548258391,0.2442633431,0.2332679934,0.2220111926,0.2104841565,0.1985489169,0.1861042810,0.1732155377,0.1600977098,0.1469694777,0.1339040490,0.1208153494,0.1076075390,0.0943681324,0.0814419304,0.0693148615,0.0583743628,0.0487091953,0.0401005421,0.0322131229,0.0248310300,0.0179581218,0.0117221082,0.0061669477,0.0010994518,-0.0038803543,-0.0091853571,-0.0150400141,-0.0214192376,-0.0281502083,-0.0350738465,-0.0421220912,-0.0492478629,-0.0562857072,-0.0628863562,-0.0686026254,-0.0730782564,-0.0761995474,-0.0780845861,-0.0789194529,-0.0787875913,-0.0776388505,-0.0754225585,-0.0722780863,-0.0686234562,-0.0650515768,-0.0620983802,-0.0600515855,-0.0589286785,-0.0586191030,-0.0590657196,-0.0603343175,-0.0625192682,-0.0655815591,-0.0692704581,-0.0732032928,-0.0770522141,-0.0806999326,-0.0842404201,-0.0878261794,-0.0914931252,-0.0950988307,-0.0984004577,-0.1011805446,-0.1032907690,-0.1045631982,-0.1046741010,-0.1031043736,-0.0992708500,-0.0927735408,-0.0836046271
211_AXCPT19_TK,AX correct probe response,Channel-1 HbO,2113057.9659938812,2128057.9659938812,0.3624493013,0.3558831126,0.3496665345,0.3437600040,0.3377438876,0.3309944647,0.3229454625,0.3132534698,0.3017711022,0.2883666759,0.2727317810,0.2543368020,0.2325921195,0.2071096730,0.1778826974,0.1452721002,0.1098287043,0.0720934830,0.0325354197,-0.0083240590,-0.0497169003,-0.0905505168,-0.1295434114,-0.1655075318,-0.1975975084,-0.2253752733,-0.2486955572,-0.2675573221,-0.2820572511,-0.2924571960,-0.2992571625,-0.3031437912,-0.3047949598,-0.3046693137,-0.3029386799,-0.2996088432,-0.2947313732,-0.2885451059,-0.2814541982,-0.2739000350,-0.2662682079,-0.2589102344,-0.2522301369,-0.2467105375,-0.2427996525,-0.2407195480,-0.2403522200,-0.2413102890,-0.2431528368,-0.2455871167,-0.2485007895,-0.2518154229,-0.2553136853,-0.2586061127,-0.2612733680,-0.2630770099,-0.2640712409,-0.2645133857,-0.2646340809,-0.2644495382,-0.2637623928,-0.2623525092,-0.2602245892,-0.2577324163,-0.2554782813,-0.2540538515,-0.2538059399,-0.2547761765,-0.2568283937,-0.2598496225,-0.2638610835,-0.2689461363,-0.2750586105,-0.2818806391,-0.2888579633,-0.2954044186,-0.3011435378,-0.3060185136,-0.3101901774,-0.3138073571,-0.3168319667,-0.3190477786,-0.3202402046,-0.3204110526,-0.3198582808,-0.3190446415,-0.3183481431,-0.3178824127,-0.3175141161,-0.3170575225,-0.3165024584,-0.3161035997,-0.3162602977,-0.3172827236,-0.3192238016,-0.3218913814,-0.3250164484,-0.3284414091,-0.3321769831,-0.3362852234,-0.3406982221,-0.3451321142,-0.3491689190,-0.3524451964,-0.3548000574,-0.3562580450,-0.3568600467,-0.3564912251,-0.3548546269,-0.3516171933,-0.3466230809,-0.3400132267,-0.3321553621,-0.3234425046,-0.3141245273,-0.3042981304,-0.2940452792,-0.2835901645,-0.2733231984,-0.2636490849,-0.2547743151,-0.2466068877,-0.2388530018,-0.2312522072,-0.2237903547,-0.2167315343,-0.2104391303,-0.2051198368,-0.2006735751,-0.1967405051,-0.1928976571
211_AXCPT19_TK,AX correct probe response,Channel-1 HbO,2123609.2619895935,2138609.2619895935,-0.3162602977,-0.3172827236,-0.3192238016,-0.3218913814,-0.3250164484,-0.3284414091,-0.3321769831,-0.3362852234,-0.3406982221,-0.3451321142,-0.3491689190,-0.3524451964,-0.3548000574,-0.3562580450,-0.3568600467,-0.3564912251,-0.3548546269,-0.3516171933,-0.3466230809,-0.3400132267,-0.3321553621,-0.3234425046,-0.3141245273,-0.3042981304,-0.2940452792,-0.2835901645,-0.2733231984,-0.2636490849,-0.2547743151,-0.2466068877,-0.2388530018,-0.2312522072,-0.2237903547,-0.2167315343,-0.2104391303,-0.2051198368,-0.2006735751,-0.1967405051,-0.1928976571,-0.1888585108,-0.1845318586,-0.1799196389,-0.1749710633,-0.1695246835,-0.1633649213,-0.1563067468,-0.1482007283,-0.1388461747,-0.1279168165,-0.1150084502,-0.0998078435,-0.0822641001,-0.0626188511,-0.0412585179,-0.0185072477,0.0054716695,0.0305978324,0.0566995703,0.0834042453,0.1102003841,0.1366240230,0.1624077364,0.1874665452,0.2117347538,0.2349931039,0.2568408001,0.2768446647,0.2947414677,0.3105331660,0.3244159409,0.3366157385,0.3472713609,0.3564624925,0.3643457390,0.3712578794,0.3776734020,0.3840279588,0.3905363575,0.3971546730,0.4037249270,0.4101826005,0.4166548101,0.4233673857,0.4304205169,0.4375957275,0.4443559814,0.4500633301,0.4542631046,0.4568363180,0.4579297836,0.4577272220,0.4562301577,0.4532145952,0.4483940261,0.4416508774,0.4331548507,0.4232884643,0.4124416381,0.4008316824,0.3884958598,0.3754673468,0.3619844989,0.3485539342,0.3358011646,0.3241871934,0.3137644347,0.3041419214,0.2946983257,0.2849028815,0.2745368245,0.2636961795,0.2526043643,0.2413773955,0.2299166379,0.2180159022,0.2055986681,0.1928899018,0.1803722465,0.1685220706,0.1574605995,0.1467274798,0.1353378273,0.1221084212,0.1060618497,0.0866987951,0.0640545155,0.0385973557,0.0111087015,-0.0173346400,-0.0452895036,-0.0709450280
211_AXCPT19_TK,AX correct probe response,Channel-1 HbO,2141729.9649715424,2156729.9649715424,0.0044275108,0.0091601959,0.0143898351,0.0198237439,0.0251412279,0.0300321597,0.0343457512,0.0382145779,0.0420235308,0.0462106217,0.0510111482,0.0563127132,0.0617308032,0.0668566699,0.0714976374,0.0757458652,0.0798439064,0.0839528797,0.0879964212,0.0917032643,0.0948154017,0.0972954052,0.0993768105,0.1014248278,0.1037039818,0.1062153760,0.1087242657,0.1109530791,0.1127844386,0.1143264261,0.1158146106,0.1174511685,0.1193252225,0.1214819442,0.1240646826,0.1273795675,0.1317920972,0.1374972325,0.1443134390,0.1516598979,0.1587499730,0.1648637734,0.1695086398,0.1723748004,0.1731450394,0.1713257676,0.1662668097,0.1574009615,0.1445573638,0.1281449325,0.1090969226,0.0886164430,0.0678717927,0.0477995845,0.0290661968,0.0121088329,-0.0028493560,-0.0158468239,-0.0272510932,-0.0377524233,-0.0482026713,-0.0593280274,-0.0714679572,-0.0844942934,-0.0979432222,-0.1112598704,-0.1239943288,-0.1358377302,-0.1465295195,-0.1557841189,-0.1633614556,-0.1692699993,-0.1739592728,-0.1783227457,-0.1834358052,-0.1901432879,-0.1987258683,-0.2088137453,-0.2195479002,-0.2298437926,-0.2385842059,-0.2446793889,-0.2470785897,-0.2448519006,-0.2373694278,-0.2244871662,-0.2066142707,-0.1846247468,-0.1596948873,-0.1331635990,-0.1064306374,-0.0808317411,-0.0574351721,-0.0368000165,-0.0188350406,-0.0028791661,0.0120077357,0.0266924496,0.0417395520,0.0573870437,0.0736498890,0.0904165167,0.1074788487,0.1245442174,0.1413065778,0.1575722271,0.1733356229,0.1887142961,0.2037722203,0.2183698935,0.2321772454,0.2448535454,0.2562473147,0.2664535692,0.2756924907,0.2841193469,0.2917299442,0.2984408477,0.3042601789,0.3093808817,0.3141024446,0.3186375935,0.3229618531,0.3268342454,0.3299669433,0.3321894267,0.3334725323,0.3338179381,0.3331469599,0.3313321572,0.3283827396
211_AXCPT19_TK,AX correct probe response,Channel-1 HbO,2213868.7169551849,2228868.7169551849,-0.2446390524,-0.2433786690,-0.2410611060,-0.2376524758,-0.2333629973,-0.2284050850,-0.2227686382,-0.2161932405,-0.2083681440,-0.1992372021,-0.1892027991,-0.1790636109,-0.1697020579,-0.1617262367,-0.1552914940,-0.1501854883,-0.1460955315,-0.1428730181,-0.1406084775,-0.1394632354,-0.1393916931,-0.1399675828,-0.1404436079,-0.1400192122,-0.1381630353,-0.1347941316,-0.1302148208,-0.1248665903,-0.1190971860,-0.1130838270,-0.1069142053,-0.1007002001,-0.0945793948,-0.0885777214,-0.0824606299,-0.0757317371,-0.0678285323,-0.0584191138,-0.0476115780,-0.0359175800,-0.0239829637,-0.0122782531,-0.0009588643,0.0100336834,0.0207232650,0.0308987307,0.0401328136,0.0480213517,0.0544577650,0.0597334081,0.0643915136,0.0689275881,0.0735296196,0.0780328935,0.0821082365,0.0855243670,0.0882902202,0.0905999500,0.0926521955,0.0945023518,0.0960762505,0.0973273100,0.0983833372,0.0995388336,0.1010799965,0.1030645765,0.1052304703,0.1071287269,0.1084038607,0.1090238171,0.1093018798,0.1097008069,0.1105508075,0.1118719291,0.1134208996,0.1149090755,0.1162056645,0.1173667360,0.1184712686,0.1193853243,0.1196399139,0.1185472102,0.1155048636,0.1102895426,0.1031569515,0.0947148643,0.0856872387,0.0767435259,0.0684886856,0.0615531733,0.0566305377,0.0543597072,0.0550798298,0.0586008663,0.0641592374,0.0706225193,0.0768322696,0.0818828051,0.0851984648,0.0864186482,0.0852263943,0.0812944513,0.0744311206,0.0648345117,0.0532556726,0.0409220574,0.0292309194,0.0193748764,0.0121119410,0.0077898480,0.0065465885,0.0084952775,0.0137462282,0.0222629504,0.0336858141,0.0472970565,0.0621958707,0.0775767513,0.0929198772,0.1079741162,0.1225616059,0.1363570417,0.1488226917,0.1593705692,0.1676430690,0.1737100483,0.1780447939,0.1812886891,0.1839455258,0.1861977464,0.1879609648
211_AXCPT19_TK,AX correct probe response,Channel-1 HbO,2240476.3331413269,2255476.3331413269,-0.0527379943,-0.0653373698,-0.0777642570,-0.0896457326,-0.1007409571,-0.1109536683,-0.1201860153,-0.1281735979,-0.1344607314,-0.1385585651,-0.1401875297,-0.1394304059,-0.1366740053,-0.1323844343,-0.1268973147,-0.1203779210,-0.1129608865,-0.1049430664,-0.0968614744,-0.0893761767,-0.0830404035,-0.0781306792,-0.0746503718,-0.0724803566,-0.0715389751,-0.0718074993,-0.0731998033,-0.0754058964,-0.0778681250,-0.0799407579,-0.0811437619,-0.0813400006,-0.0807012664,-0.0794875728,-0.0778177972,-0.0756087667,-0.0727215530,-0.0692024064,-0.0654315496,-0.0620496847,-0.0597032494,-0.0587909935,-0.0593754270,-0.0612846986,-0.0642978897,-0.0682574774,-0.0730201780,-0.0783043251,-0.0835898828,-0.0881866781,-0.0914540031,-0.0930320324,-0.0929177111,-0.0913282971,-0.0884678046,-0.0843841294,-0.0790212233,-0.0724189406,-0.0648970426,-0.0570556584,-0.0495619624,-0.0428699667,-0.0370724637,-0.0319815513,-0.0273785951,-0.0232599762,-0.0199020959,-0.0177085577,-0.0169778766,-0.0177755223,-0.0199889535,-0.0234990685,-0.0283125220,-0.0345275580,-0.0421507372,-0.0509176147,-0.0602655293,-0.0694833345,-0.0779330006,-0.0851878088,-0.0910049935,-0.0952021014,-0.0975934223,-0.0980782661,-0.0968250726,-0.0943902216,-0.0916315320,-0.0894271869,-0.0883703377,-0.0886259964,-0.0900086173,-0.0921882386,-0.0948621265,-0.0977847776,-0.1006928086,-0.1032551240,-0.1051340419,-0.1061195428,-0.1062146340,-0.1055830206,-0.1043988080,-0.1027312130,-0.1005589787,-0.0978870631,-0.0948427593,-0.0916432022,-0.0884529159,-0.0852661919,-0.0819311360,-0.0783060141,-0.0744190135,-0.0704881804,-0.0667788611,-0.0634264147,-0.0603780575,-0.0574969982,-0.0547359848,-0.0522275810,-0.0502059329,-0.0488252785,-0.0480317877,-0.0475931464,-0.0472561629,-0.0468955421,-0.0465189622,-0.0461220005,-0.0455299255,-0.0443770412,-0.0422582147,-0.0389516217,-0.0345496637
211_AXCPT19_TK,AX correct probe response,Channel-1 HbO,2363536.5550518036,2378536.5550518036,-0.0057739321,-0.0075979729,-0.0085978034,-0.0089699401,-0.0088996302,-0.0086409077,-0.0086271020,-0.0094605620,-0.0117273313,-0.0157436317,-0.0214102827,-0.0282755315,-0.0357655850,-0.0434297679,-0.0510374122,-0.0584875377,-0.0656535504,-0.0723271818,-0.0783219181,-0.0836527162,-0.0886362664,-0.0938122025,-0.0997329405,-0.1067717989,-0.1150633077,-0.1245671535,-0.1351513004,-0.1465997822,-0.1585543927,-0.1704835897,-0.1817467360,-0.1917224665,-0.1998961742,-0.2058320443,-0.2090760082,-0.2091219453,-0.2055283583,-0.1981402656,-0.1872614478,-0.1736320100,-0.1582137544,-0.1419404322,-0.1255943816,-0.1098359468,-0.0952731102,-0.0824354385,-0.0716353028,-0.0628425342,-0.0557093963,-0.0497567687,-0.0445948559,-0.0400189186,-0.0359290815,-0.0321787561,-0.0285052347,-0.0246068688,-0.0202985664,-0.0155993385,-0.0106483992,-0.0054988666,0.0000381535,0.0063592218,0.0138557071,0.0226761679,0.0326488235,0.0434294995,0.0547549623,0.0665997982,0.0791190294,0.0924190577,0.1063264285,0.1203336618,0.1337612963,0.1459969448,0.1566294840,0.1654070402,0.1720898909,0.1763508994,0.1778451336,0.1764194725,0.1722867228,0.1660005167,0.1582161335,0.1493739744,0.1395048426,0.1282805739,0.1152487215,0.1000566714,0.0825170663,0.0625290260,0.0399992992,0.0149053547,-0.0124971063,-0.0414732012,-0.0707845079,-0.0988945818,-0.1243089653,-0.1458629223,-0.1628096182,-0.1747317618,-0.1814460428,-0.1830435058,-0.1800536656,-0.1735800783,-0.1652379060,-0.1568601215,-0.1501213383,-0.1462808475,-0.1461322021,-0.1500867484,-0.1582452774,-0.1703808823,-0.1858951036,-0.2038674392,-0.2232404825,-0.2430577537,-0.2626146314,-0.2814491865,-0.2992319096,-0.3156793947,-0.3305617903,-0.3437653021,-0.3553095427,-0.3652652027,-0.3736290941,-0.3802661170,-0.3849636747,-0.3875344195,-0.3878571960,-0.3858159482,-0.3812152070
211_AXCPT19_TK,AX correct probe response,Channel-1 HbO,2416293.0350303650,2431293.0350303650,-0.1035110994,-0.1164109459,-0.1321274023,-0.1501849947,-0.1700804606,-0.1914702105,-0.2141764450,-0.2380025486,-0.2625049733,-0.2869031552,-0.3102059029,-0.3314948032,-0.3502107591,-0.3662791409,-0.3800087865,-0.3918550219,-0.4022145619,-0.4113609389,-0.4195032635,-0.4268562646,-0.4336112094,-0.4398048444,-0.4452004385,-0.4493009245,-0.4515126599,-0.4513636734,-0.4486312087,-0.4432948475,-0.4353728757,-0.4247942838,-0.4114187427,-0.3951896431,-0.3762922298,-0.3551711223,-0.3323716722,-0.3083238295,-0.2832372121,-0.2571856854,-0.2303182585,-0.2030333838,-0.1759654391,-0.1497762832,-0.1249082886,-0.1014802310,-0.0793880552,-0.0585256058,-0.0389547202,-0.0208818173,-0.0044485312,0.0104980734,0.0244752997,0.0382181154,0.0524028285,0.0674123553,0.0832999160,0.0999745120,0.1174626340,0.1360468124,0.1561775630,0.1782037284,0.2020768307,0.2272036006,0.2525195842,0.2767091304,0.2984369612,0.3165004274,0.3298732121,0.3376739150,0.3391669331,0.3338973433,0.3219269677,0.3040126585,0.2815855278,0.2565105345,0.2307252391,0.2059218245,0.1834088706,0.1641589843,0.1489153520,0.1382187185,0.1323135619,0.1310011433,0.1335712973,0.1389241243,0.1458647185,0.1534121570,0.1609495025,0.1681587720,0.1748260632,0.1806845981,0.1854338697,0.1889232165,0.1913363947,0.1932060191,0.1952128966,0.1978705016,0.2012824974,0.2051393902,0.2089648920,0.2124394427,0.2155838315,0.2186988195,0.2221123990,0.2258987981,0.2297603768,0.2331658846,0.2356550502,0.2370988069,0.2377470455,0.2380423707,0.2383186982,0.2385770563,0.2384910783,0.2376321708,0.2357389525,0.2328389588,0.2291562307,0.2248877825,0.2200218555,0.2143488136,0.2076672897,0.2000260073,0.1918173721,0.1836540658,0.1761035801,0.1694509791,0.1636582225,0.1585574381,0.1541371158,0.1507127555,0.1488620045
211_AXCPT19_TK,AX correct probe response,Channel-1 HbO,2533274.7941017151,2548274.7941017151,-0.1788519758,-0.1694486865,-0.1603980373,-0.1521967482,-0.1452432516,-0.1396010003,-0.1349795637,-0.1309249238,-0.1270796371,-0.1233298608,-0.1197389930,-0.1163370787,-0.1129483436,-0.1091977207,-0.1046981723,-0.0992927650,-0.0931731332,-0.0867647642,-0.0804437473,-0.0742874038,-0.0680331703,-0.0612703085,-0.0537411979,-0.0455520529,-0.0371351487,-0.0289798645,-0.0213298808,-0.0140590260,-0.0067965615,0.0007895208,0.0087382272,0.0167436173,0.0243362746,0.0311535734,0.0371028196,0.0423214451,0.0469842742,0.0511095410,0.0545208098,0.0570049487,0.0585436708,0.0594346939,0.0602023802,0.0613408707,0.0630459768,0.0651195978,0.0671294602,0.0687216554,0.0698687473,0.0708915335,0.0722511653,0.0742527519,0.0768633458,0.0797796491,0.0826968995,0.0855734020,0.0886974301,0.0925106681,0.0972960454,0.1029241450,0.1088298823,0.1142405645,0.1184975415,0.1212671088,0.1225436861,0.1224961077,0.1213033845,0.1191211958,0.1162003115,0.1130320681,0.1103616947,0.1090068177,0.1095521230,0.1120851812,0.1161471946,0.1209598989,0.1258070709,0.1303446910,0.1346716066,0.1391439534,0.1440579512,0.1494043708,0.1548643236,0.1600471807,0.1647853946,0.1692700905,0.1739409903,0.1792054586,0.1851656393,0.1915350799,0.1978001084,0.2035030961,0.2084485377,0.2127099068,0.2164587289,0.2197533047,0.2224560995,0.2243578712,0.2254189495,0.2259368888,0.2265016228,0.2277422754,0.2300014760,0.2331359253,0.2365869244,0.2396856539,0.2419875037,0.2434254718,0.2442143553,0.2445908554,0.2445653643,0.2438612677,0.2421001454,0.2391115906,0.2351529573,0.2308916682,0.2271527802,0.2245649510,0.2233028359,0.2230808828,0.2233889168,0.2237908418,0.2240888961,0.2242798556,0.2243734356,0.2242286574,0.2235500420,0.2220562916,0.2196839511,0.2166583728,0.2133640804
211_AXCPT19_TK,AX correct probe response,Channel-1 HbO,2591077.5451660156,2606077.5451660156,-0.0123063206,-0.0089975278,-0.0065797169,-0.0051649012,-0.0045250015,-0.0042796843,-0.0041644912,-0.0042091482,-0.0047085081,-0.0060180752,-0.0083347681,-0.0116150439,-0.0156641546,-0.0203085763,-0.0255076808,-0.0313072364,-0.0376718292,-0.0443434293,-0.0508547856,-0.0567085944,-0.0616128886,-0.0656088164,-0.0689866081,-0.0720421185,-0.0748507562,-0.0772162725,-0.0788249089,-0.0795017666,-0.0793919560,-0.0789278072,-0.0786009756,-0.0787109299,-0.0792667500,-0.0800937947,-0.0810570234,-0.0822359724,-0.0839180138,-0.0864192047,-0.0898824102,-0.0942073493,-0.0991507496,-0.1045072668,-0.1102218236,-0.1163331608,-0.1227898620,-0.1292947377,-0.1353131588,-0.1402584029,-0.1437443909,-0.1457416106,-0.1465277925,-0.1464753077,-0.1458395426,-0.1446958271,-0.1430520028,-0.1410426037,-0.1390494601,-0.1376325680,-0.1372970257,-0.1382565448,-0.1403535803,-0.1431775819,-0.1462946002,-0.1494332816,-0.1525031981,-0.1554537741,-0.1581122471,-0.1601434583,-0.1611647650,-0.1609283840,-0.1594264577,-0.1568240534,-0.1532649116,-0.1487053336,-0.1429103174,-0.1356272818,-0.1268313815,-0.1168748981,-0.1064202371,-0.0961896378,-0.0867026391,-0.0781671301,-0.0705665825,-0.0638557562,-0.0581100970,-0.0535101351,-0.0501785140,-0.0480139337,-0.0466622532,-0.0456490800,-0.0445778856,-0.0432520798,-0.0416423684,-0.0397524670,-0.0375187429,-0.0348395792,-0.0317143107,-0.0283694449,-0.0252388582,-0.0227763281,-0.0212263944,-0.0205187433,-0.0203562911,-0.0204321992,-0.0206219598,-0.0210094144,-0.0217362468,-0.0228123765,-0.0240468348,-0.0251504169,-0.0259313712,-0.0264347937,-0.0269086341,-0.0276146132,-0.0286323228,-0.0298027606,-0.0308402419,-0.0315185965,-0.0317864958,-0.0317234738,-0.0313829859,-0.0306641025,-0.0293215728,-0.0271041505,-0.0239017394,-0.0197674654,-0.0147901442,-0.0089339126,-0.0019934412,0.0062828678,0.0159783486
211_AXCPT19_TK,AX correct probe response,Channel-1 HbO,2630759.5930099487,2645759.5930099487,-0.3697248597,-0.3472818446,-0.3248889973,-0.3025735150,-0.2803008438,-0.2581360124,-0.2362425655,-0.2147107801,-0.1933635843,-0.1717051557,-0.1490580126,-0.1247975506,-0.0985306419,-0.0701203945,-0.0395937206,-0.0070548744,0.0273092322,0.0631537926,0.0999339973,0.1369824700,0.1736785167,0.2095807083,0.2444153403,0.2779319944,0.3097528547,0.3393622477,0.3662694895,0.3902224676,0.4113045026,0.4298419799,0.4461896265,0.4605519416,0.4729773935,0.4835180629,0.4924030931,0.5000698294,0.5070158026,0.5135653933,0.5197107830,0.5251437731,0.5294519390,0.5323280083,0.5336530278,0.5334347444,0.5317014914,0.5284818298,0.5239105995,0.5183648805,0.5124836107,0.5070036351,0.5024761888,0.4990274772,0.4963321279,0.4938421746,0.4911316462,0.4881357290,0.4851429403,0.4825546015,0.4805609800,0.4789404297,0.4771178004,0.4744372685,0.4704535674,0.4650560866,0.4583786701,0.4505937322,0.4417627492,0.4318683661,0.4209966081,0.4095009865,0.3979918164,0.3871242325,0.3772962506,0.3684461134,0.3601042100,0.3516876926,0.3428436645,0.3336193740,0.3243683700,0.3154623250,0.3069866187,0.2986157592,0.2897556104,0.2798522944,0.2686560320,0.2562807221,0.2430473757,0.2292336857,0.2149123112,0.2000014375,0.1844842492,0.1686132219,0.1529299885,0.1380692897,0.1244606028,0.1121210307,0.1006952500,0.0897286405,0.0789821151,0.0685757652,0.0588797826,0.0502290162,0.0426411246,0.0357292799,0.0288842847,0.0216110396,0.0137959389,0.0057408440,-0.0020482514,-0.0091911838,-0.0156822106,-0.0218950918,-0.0283481366,-0.0354072750,-0.0431281577,-0.0513134894,-0.0597127720,-0.0682011215,-0.0767901124,-0.0854619726,-0.0939732431,-0.1017988632,-0.1082791800,-0.1128960591,-0.1155143241,-0.1164276789,-0.1161730247,-0.1152461391,-0.1139143313,-0.1122348404,-0.1102420155
211_AXCPT19_TK,AX correct probe response,Channel-1 HbO,2686956.7129611969,2701956.7129611969,-0.2402407080,-0.2338228601,-0.2269049045,-0.2198409270,-0.2127290180,-0.2054372055,-0.1977795796,-0.1896983108,-0.1813024058,-0.1727379113,-0.1640156880,-0.1549533714,-0.1452859886,-0.1348674403,-0.1238085926,-0.1124332285,-0.1010790176,-0.0899037612,-0.0788480522,-0.0677771739,-0.0566901651,-0.0458275018,-0.0355779065,-0.0262460479,-0.0178562428,-0.0101305307,-0.0026436667,0.0049651385,0.0128773123,0.0211456513,0.0298373647,0.0391261379,0.0492464124,0.0603420599,0.0723355345,0.0849421802,0.0978358191,0.1108353672,0.1239648667,0.1373430983,0.1509840908,0.1646608725,0.1779510207,0.1904398439,0.2019224292,0.2124517469,0.2222056543,0.2312759916,0.2395389265,0.2467082953,0.2525269930,0.2569391553,0.2601111272,0.2622936035,0.2636351263,0.2640943311,0.2635230823,0.2618510750,0.2592192332,0.2559553440,0.2524064441,0.2487488972,0.2449256666,0.2407741622,0.2362552690,0.2316090897,0.2273172958,0.2238834725,0.2215601704,0.2201993454,0.2193376468,0.2184644021,0.2172871115,0.2158251749,0.2142925694,0.2128646203,0.2114961011,0.2099238464,0.2078434160,0.2051092748,0.2018030658,0.1981295951,0.1942278103,0.1900503935,0.1854238501,0.1802545716,0.1747150258,0.1692538995,0.1644005613,0.1604698219,0.1573502588,0.1545305151,0.1513633786,0.1473936714,0.1425409059,0.1370413250,0.1312028139,0.1251310299,0.1186064516,0.1111949433,0.1025052681,0.0924069098,0.0810706675,0.0688290855,0.0559725835,0.0426383376,0.0288777943,0.0148397903,0.0009061003,-0.0123463504,-0.0243544436,-0.0348253649,-0.0438671632,-0.0518873473,-0.0593194634,-0.0663685459,-0.0729444671,-0.0788162236,-0.0838805342,-0.0883594778,-0.0927724735,-0.0976851599,-0.1034088825,-0.1098514227,-0.1166004235,-0.1231750450,-0.1292869700,-0.1349458602,-0.1403525782,-0.1456831021,-0.1509395341
211_AXCPT19_TK,AX correct probe response,Channel-1 HbO,2695902.3771286011,2710902.3771286011,0.2078434160,0.2051092748,0.2018030658,0.1981295951,0.1942278103,0.1900503935,0.1854238501,0.1802545716,0.1747150258,0.1692538995,0.1644005613,0.1604698219,0.1573502588,0.1545305151,0.1513633786,0.1473936714,0.1425409059,0.1370413250,0.1312028139,0.1251310299,0.1186064516,0.1111949433,0.1025052681,0.0924069098,0.0810706675,0.0688290855,0.0559725835,0.0426383376,0.0288777943,0.0148397903,0.0009061003,-0.0123463504,-0.0243544436,-0.0348253649,-0.0438671632,-0.0518873473,-0.0593194634,-0.0663685459,-0.0729444671,-0.0788162236,-0.0838805342,-0.0883594778,-0.0927724735,-0.0976851599,-0.1034088825,-0.1098514227,-0.1166004235,-0.1231750450,-0.1292869700,-0.1349458602,-0.1403525782,-0.1456831021,-0.1509395341,-0.1559798763,-0.1607095563,-0.1653087479,-0.1703284889,-0.1765567806,-0.1847149045,-0.1951687770,-0.2078230388,-0.2222414289,-0.2379016690,-0.2544098511,-0.2715273485,-0.2890179820,-0.3064788347,-0.3233213045,-0.3389385015,-0.3529584914,-0.3654142195,-0.3766961697,-0.3872987180,-0.3975185324,-0.4072762484,-0.4161186202,-0.4233337021,-0.4280721293,-0.4294338467,-0.4265663743,-0.4188206985,-0.4059345454,-0.3881450042,-0.3661338866,-0.3408042460,-0.3130158721,-0.2834433591,-0.2526229374,-0.2211124458,-0.1896073494,-0.1588975506,-0.1296950169,-0.1024778016,-0.0774673571,-0.0547252471,-0.0342515504,-0.0159807429,0.0003095038,0.0150567388,0.0288398216,0.0421911285,0.0554207180,0.0685828924,0.0815979432,0.0944083584,0.1070374542,0.1195280294,0.1318539344,0.1439167163,0.1556422548,0.1670758512,0.1783664187,0.1896341690,0.2008290656,0.2117115746,0.2219874445,0.2314866721,0.2402361680,0.2483670816,0.2559305903,0.2627777044,0.2686249388,0.2732762620,0.2768289550,0.2796967729,0.2824179564,0.2853604180,0.2885139743,0.2915197737,0.2939207617,0.2954473946
211_AXCPT19_TK,AX correct probe response,Channel-1 HbO,2705421.4801788330,2720421.4801788330,-0.3661338866,-0.3408042460,-0.3130158721,-0.2834433591,-0.2526229374,-0.2211124458,-0.1896073494,-0.1588975506,-0.1296950169,-0.1024778016,-0.0774673571,-0.0547252471,-0.0342515504,-0.0159807429,0.0003095038,0.0150567388,0.0288398216,0.0421911285,0.0554207180,0.0685828924,0.0815979432,0.0944083584,0.1070374542,0.1195280294,0.1318539344,0.1439167163,0.1556422548,0.1670758512,0.1783664187,0.1896341690,0.2008290656,0.2117115746,0.2219874445,0.2314866721,0.2402361680,0.2483670816,0.2559305903,0.2627777044,0.2686249388,0.2732762620,0.2768289550,0.2796967729,0.2824179564,0.2853604180,0.2885139743,0.2915197737,0.2939207617,0.2954473946,0.2961387534,0.2962336896,0.2959232052,0.2951469157,0.2935920290,0.2909003953,0.2869222245,0.2818271319,0.2759973981,0.2697768167,0.2632500629,0.2562204054,0.2484076563,0.2397096266,0.2303277385,0.2206708551,0.2111047461,0.2017173520,0.1922711212,0.1823851319,0.1718132214,0.1606175785,0.1491258811,0.1377088870,0.1265290482,0.1154355174,0.1040822553,0.0921762730,0.0796693171,0.0667657195,0.0537600919,0.0408374323,0.0279983781,0.0151767393,0.0024522057,-0.0098238005,-0.0211053444,-0.0309052366,-0.0390749034,-0.0459204496,-0.0520525689,-0.0580561095,-0.0641994245,-0.0703645407,-0.0762238073,-0.0815407896,-0.0863982175,-0.0911973995,-0.0964382247,-0.1024528741,-0.1092777135,-0.1167200748,-0.1245331750,-0.1325388539,-0.1405829659,-0.1483607097,-0.1552777648,-0.1604936312,-0.1631592338,-0.1627230167,-0.1591154537,-0.1526857157,-0.1439434362,-0.1333059282,-0.1210290716,-0.1073504660,-0.0927256271,-0.0779702393,-0.0641782693,-0.0524530003,-0.0436291548,-0.0381499202,-0.0361294157,-0.0375003539,-0.0420969456,-0.0495878030,-0.0593156395,-0.0701943310,-0.0807741684,-0.0894618729,-0.0947729433,-0.0954768512,-0.0905977130
211_AXCPT19_TK,AX correct probe response,Channel-1 HbO,2751181.9920539856,2766181.9920539856,0.1590555772,0.1617360293,0.1632680136,0.1638043203,0.1633298312,0.1616531406,0.1585833858,0.1541522520,0.1486994358,0.1427465332,0.1367361722,0.1308147135,0.1248215488,0.1184943587,0.1117238502,0.1046612485,0.0976059467,0.0907567145,0.0840065164,0.0769444029,0.0690777581,0.0601114971,0.0500830996,0.0392711635,0.0279514465,0.0161739765,0.0037289825,-0.0096623742,-0.0240707680,-0.0391971042,-0.0544384809,-0.0691437062,-0.0829050262,-0.0957029849,-0.1078131117,-0.1195559899,-0.1310830483,-0.1423434033,-0.1532301331,-0.1637727779,-0.1742088183,-0.1848654989,-0.1959472460,-0.2074040609,-0.2189876846,-0.2304610652,-0.2418128723,-0.2533074819,-0.2653076535,-0.2779842814,-0.2911225968,-0.3041661302,-0.3164824813,-0.3276980766,-0.3378968049,-0.3475535391,-0.3572558951,-0.3674126147,-0.3781272655,-0.3892736680,-0.4006702860,-0.4121944206,-0.4237395487,-0.4350685819,-0.4457213066,-0.4550972306,-0.4627040407,-0.4684402541,-0.4727336103,-0.4764291247,-0.4804921081,-0.4857226160,-0.4926487963,-0.5016220173,-0.5129940813,-0.5271857808,-0.5445051963,-0.5647500360,-0.5868018565,-0.6084332651,-0.6264163345,-0.6368696699,-0.6356906536,-0.6189267958,-0.5830595866,-0.5253093142,-0.4440741714,-0.3394765469,-0.2138170180,-0.0716565736,0.0806493287,0.2358728100,0.3869566074,0.5278234544,0.6537860645,0.7616219868,0.8495093427,0.9169830559,0.9649026328,0.9952915192,1.0109482638,1.0148864087,1.0097937488,0.9977174314,0.9800514545,0.9577131928,0.9313092316,0.9011682621,0.8672707296,0.8292170005,0.7863659991,0.7381385141,0.6843419477,0.6253661130,0.5622011843,0.4963454247,0.4297184248,0.3646130417,0.3035737081,0.2490635320,0.2029411756,0.1659693500,0.1376287131,0.1163455898,0.0999912237,0.0863864233,0.0736151538,0.0601201687,0.0447035507,0.0265787434,0.0054902127
211_AXCPT19_TK,AX wrong probe response,Channel-1 HbO,415560.8921051025,430560.8921051025,0.2464620423,0.2391887790,0.2346425158,0.2331963617,0.2349613673,0.2397161371,0.2469097164,0.2558182155,0.2657679900,0.2762569709,0.2869057761,0.2973421163,0.3071878474,0.3161977653,0.3244156261,0.3321760296,0.3399261530,0.3480161156,0.3566422659,0.3659684594,0.3762495129,0.3877647924,0.4005517218,0.4141295503,0.4274550984,0.4391936475,0.4481418500,0.4535369953,0.4551025074,0.4528836645,0.4470681271,0.4379619126,0.4261069726,0.4123600298,0.3977802571,0.3833546835,0.3697513851,0.3572871641,0.3461076643,0.3363804926,0.3283041700,0.3219209122,0.3169108602,0.3125801697,0.3080845443,0.3027051673,0.2959499244,0.2874144562,0.2765389139,0.2624905999,0.2443140647,0.2212656034,0.1930918246,0.1600677768,0.1228015867,0.0819779152,0.0382433790,-0.0077012537,-0.0549431567,-0.1023470753,-0.1487672530,-0.1933453590,-0.2356585794,-0.2755754623,-0.3129061319,-0.3471046770,-0.3772347332,-0.4022091879,-0.4211330463,-0.4335192735,-0.4392585844,-0.4384403975,-0.4312428334,-0.4180242671,-0.3995542830,-0.3771728189,-0.3526806146,-0.3279688957,-0.3046193436,-0.2837144727,-0.2658982416,-0.2515252510,-0.2407056723,-0.2332112145,-0.2283938914,-0.2252846184,-0.2228792864,-0.2204456237,-0.2176414191,-0.2143767549,-0.2105675067,-0.2060057644,-0.2004552229,-0.1938885534,-0.1866539457,-0.1793884435,-0.1727025952,-0.1668690928,-0.1617494527,-0.1570089858,-0.1524685428,-0.1483385420,-0.1451498240,-0.1434283569,-0.1433676361,-0.1447400483,-0.1470962062,-0.1501001196,-0.1537555589,-0.1583586671,-0.1642310365,-0.1714594776,-0.1798372715,-0.1890210058,-0.1987442841,-0.2088877137,-0.2193400388,-0.2297883923,-0.2396473697,-0.2482240602,-0.2550339893,-0.2600509408,-0.2636872277,-0.2664967594,-0.2688185554,-0.2706133914,-0.2715842604,-0.2714711203,-0.2702889391,-0.2683122834,-0.2658167831
211_AXCPT19_TK,AX wrong probe response,Channel-1 HbO,454325.4361152649,469325.4361152649,0.0007858158,0.0039811905,0.0089223626,0.0157140360,0.0240898359,0.0336518737,0.0441313963,0.0554628245,0.0676338154,0.0804507997,0.0934222088,0.1058662024,0.1171603808,0.1269385697,0.1351022405,0.1416754557,0.1466587470,0.1500300323,0.1518886027,0.1525842644,0.1526808462,0.1527516324,0.1531527881,0.1539547329,0.1550881023,0.1565730688,0.1586301932,0.1615757247,0.1655770160,0.1704619266,0.1757528022,0.1809152766,0.1856257535,0.1898569360,0.1937435510,0.1973610254,0.2006070854,0.2032774905,0.2052459717,0.2065660749,0.2073902030,0.2077623108,0.2074547216,0.2059933241,0.2028505371,0.1976347314,0.1901235254,0.1801452952,0.1674624424,0.1518290338,0.1332453363,0.1122333270,0.0899068229,0.0677426242,0.0471491966,0.0290618386,0.0137843978,0.0011206753,-0.0093657564,-0.0181673208,-0.0258039355,-0.0328734828,-0.0400281586,-0.0477915482,-0.0563029551,-0.0651838927,-0.0736552762,-0.0808618738,-0.0862175048,-0.0895679437,-0.0911088393,-0.0911837750,-0.0901449035,-0.0883518188,-0.0862359613,-0.0842960204,-0.0829689241,-0.0824684312,-0.0827397814,-0.0835841771,-0.0848564043,-0.0865671844,-0.0888056848,-0.0915727565,-0.0947032108,-0.0979720683,-0.1013146896,-0.1049735176,-0.1094134580,-0.1150358087,-0.1219043153,-0.1296902486,-0.1378718893,-0.1460441966,-0.1541163501,-0.1622545060,-0.1706308576,-0.1791948634,-0.1876478581,-0.1956332302,-0.2029936651,-0.2098961480,-0.2167296282,-0.2238684053,-0.2314936677,-0.2395933118,-0.2480999026,-0.2570091446,-0.2663439800,-0.2759910664,-0.2855797154,-0.2945470408,-0.3023737864,-0.3088232637,-0.3139896289,-0.3181081387,-0.3212843997,-0.3233626178,-0.3240325420,-0.3230941061,-0.3206767774,-0.3172330401,-0.3133086642,-0.3092808545,-0.3052614372,-0.3012043016,-0.2970919152,-0.2930247170,-0.2891383903,-0.2854430668,-0.2817491042
211_AXCPT19_TK,AX wrong probe response,Channel-1 HbO,499512.5081539154,514512.5081539154,0.1473204469,0.1629731835,0.1772354995,0.1901532293,0.2017890673,0.2120857076,0.2209003431,0.2281589925,0.2339714788,0.2385990776,0.2423126196,0.2452831074,0.2476133757,0.2494688599,0.2511536702,0.2530249615,0.2552903541,0.2578558338,0.2603763370,0.2624918878,0.2640606777,0.2652047922,0.2661433399,0.2669516485,0.2674459116,0.2673011371,0.2663147936,0.2646007768,0.2625558394,0.2606126309,0.2589433225,0.2573201116,0.2552333931,0.2521722573,0.2478544794,0.2422552305,0.2354496182,0.2274234557,0.2180274088,0.2071199874,0.1947666057,0.1813089324,0.1672291515,0.1528975915,0.1383975369,0.1235864769,0.1083665867,0.0929526348,0.0779244185,0.0640115496,0.0517345357,0.0411287624,0.0317491986,0.0229649279,0.0143338747,0.0058018289,-0.0023853637,-0.0099775845,-0.0170188889,-0.0239344087,-0.0313334898,-0.0396694610,-0.0489980552,-0.0589897878,-0.0691727242,-0.0792339115,-0.0891686648,-0.0991802303,-0.1094303304,-0.1198492792,-0.1301455699,-0.1399906153,-0.1492172304,-0.1578549413,-0.1659683202,-0.1734512016,-0.1799741337,-0.1851564279,-0.1888597279,-0.1913909570,-0.1934418330,-0.1957903209,-0.1989833670,-0.2032217650,-0.2085009746,-0.2148801125,-0.2226587563,-0.2322997716,-0.2441373911,-0.2580887998,-0.2735768361,-0.2897028496,-0.3055322679,-0.3202879870,-0.3333395672,-0.3440604322,-0.3517288750,-0.3555866032,-0.3550211132,-0.3497303867,-0.3397462550,-0.3253286020,-0.3068597037,-0.2848443595,-0.2599908717,-0.2332387510,-0.2056259679,-0.1780467763,-0.1510756800,-0.1249874949,-0.0999404459,-0.0761528773,-0.0539109673,-0.0334098149,-0.0145977443,0.0028115033,0.0191485674,0.0345637038,0.0489444057,0.0620279884,0.0735843739,0.0834927375,0.0916457239,0.0977684449,0.1013197125,0.1015866324,0.0979209629,0.0899479991,0.0776210652,0.0611440999,0.0409121593
211_AXCPT19_TK,AX wrong probe response,Channel-1 HbO,508572.8600025177,523572.8600025177,-0.1913909570,-0.1934418330,-0.1957903209,-0.1989833670,-0.2032217650,-0.2085009746,-0.2148801125,-0.2226587563,-0.2322997716,-0.2441373911,-0.2580887998,-0.2735768361,-0.2897028496,-0.3055322679,-0.3202879870,-0.3333395672,-0.3440604322,-0.3517288750,-0.3555866032,-0.3550211132,-0.3497303867,-0.3397462550,-0.3253286020,-0.3068597037,-0.2848443595,-0.2599908717,-0.2332387510,-0.2056259679,-0.1780467763,-0.1510756800,-0.1249874949,-0.0999404459,-0.0761528773,-0.0539109673,-0.0334098149,-0.0145977443,0.0028115033,0.0191485674,0.0345637038,0.0489444057,0.0620279884,0.0735843739,0.0834927375,0.0916457239,0.0977684449,0.1013197125,0.1015866324,0.0979209629,0.0899479991,0.0776210652,0.0611440999,0.0409121593,0.0176163383,-0.0075037071,-0.0324627782,-0.0546107579,-0.0710514010,-0.0792518338,-0.0775685178,-0.0654634050,-0.0433949984,-0.0125620317,0.0253013442,0.0679884628,0.1127946910,0.1565778893,0.1960701707,0.2284193977,0.2517298252,0.2653368669,0.2697100770,0.2661020722,0.2561843457,0.2418313892,0.2250168229,0.2076781550,0.1914722816,0.1774871250,0.1660775990,0.1569671639,0.1495805814,0.1433956598,0.1381014740,0.1335104784,0.1293465262,0.1251165711,0.1202092846,0.1141689212,0.1069357484,0.0988727496,0.0905627682,0.0825199608,0.0750140077,0.0681070479,0.0618182208,0.0562331418,0.0514499015,0.0474105364,0.0437812071,0.0400271786,0.0356651969,0.0305070859,0.0247084378,0.0185902795,0.0123670553,0.0059827079,-0.0008283950,-0.0083307551,-0.0166260068,-0.0256801609,-0.0355121087,-0.0463758406,-0.0587517537,-0.0731019145,-0.0895439696,-0.1076765549,-0.1266838668,-0.1456626123,-0.1639734754,-0.1814009143,-0.1980420087,-0.2140468983,-0.2294225726,-0.2440246798,-0.2576974636,-0.2704001930,-0.2821669893,-0.2929060579,-0.3022147693,-0.3093913536,-0.3136729603
211_AXCPT19_TK,AX wrong probe response,Channel-1 HbO,576926.9070625305,591926.9070625305,0.0265024044,0.0257440874,0.0226707694,0.0176137174,0.0110751933,0.0036214872,-0.0041061786,-0.0113391872,-0.0172209773,-0.0209943490,-0.0222591657,-0.0211303297,-0.0181552728,-0.0140201088,-0.0092439842,-0.0040593844,0.0014805364,0.0072911990,0.0131337316,0.0186966155,0.0238199850,0.0286719143,0.0337233695,0.0395184727,0.0463782178,0.0542301817,0.0626780068,0.0712458692,0.0796064564,0.0876401519,0.0953223603,0.1025689247,0.1091953271,0.1150333433,0.1200912265,0.1245979607,0.1288715325,0.1330947182,0.1371683551,0.1407712299,0.1435891876,0.1455278874,0.1467411064,0.1474574922,0.1477413822,0.1473813627,0.1460120363,0.1433853089,0.1395825899,0.1350093058,0.1301737014,0.1253988027,0.1206659338,0.1156944956,0.1101771778,0.1039744065,0.0971257094,0.0896916800,0.0815763822,0.0725034340,0.0621919942,0.0505991813,0.0380365657,0.0250719568,0.0122889026,0.0000880565,-0.0113051886,-0.0216360950,-0.0304124621,-0.0368966904,-0.0403492869,-0.0404008282,-0.0373281320,-0.0320474462,-0.0258260039,-0.0199044691,-0.0152427307,-0.0124735850,-0.0120022532,-0.0141016697,-0.0188838632,-0.0261770619,-0.0354600350,-0.0459685278,-0.0569427956,-0.0678587191,-0.0784778203,-0.0886958181,-0.0983444005,-0.1071275414,-0.1147425127,-0.1210779870,-0.1263082809,-0.1307756271,-0.1347356898,-0.1381680818,-0.1408019021,-0.1423391500,-0.1427107896,-0.1421686057,-0.1411407703,-0.1399727892,-0.1387597222,-0.1373852281,-0.1357171401,-0.1337895303,-0.1318119629,-0.1300016709,-0.1283975300,-0.1268193587,-0.1249943844,-0.1227250509,-0.1199376457,-0.1165684225,-0.1124104196,-0.1070879821,-0.1002147040,-0.0916364320,-0.0815753906,-0.0705468956,-0.0591014166,-0.0475914951,-0.0361323433,-0.0247644752,-0.0136741501,-0.0032786595,0.0059154357,0.0135821075,0.0197646349,0.0248403369,0.0292832909
211_AXCPT19_TK,AX wrong probe response,Channel-1 HbO,605598.9069938660,620598.9069938660,0.1169098617,0.1275731624,0.1377969454,0.1469299390,0.1544719164,0.1602188429,0.1642016543,0.1665162331,0.1672146492,0.1663627295,0.1642049993,0.1612664575,0.1582664259,0.1558661185,0.1544040280,0.1538059176,0.1537434468,0.1539254677,0.1543080656,0.1550840911,0.1564780596,0.1585100368,0.1609182050,0.1633054574,0.1653877761,0.1671444907,0.1687599376,0.1704050676,0.1720267629,0.1733160332,0.1738849448,0.1735044717,0.1722135354,0.1702267397,0.1677265511,0.1647172139,0.1610745730,0.1567554177,0.1519809050,0.1472283633,0.1430189138,0.1396416851,0.1370134197,0.1347834924,0.1326026813,0.1303456446,0.1281260779,0.1261058858,0.1242475773,0.1222061077,0.1194574214,0.1155710886,0.1104204558,0.1041858414,0.0971715642,0.0895958585,0.0815288019,0.0730187392,0.0642733029,0.0557172204,0.0478590543,0.0410516501,0.0353277194,0.0304593155,0.0262136395,0.0226038091,0.0199368454,0.0186209074,0.0188639108,0.0204766599,0.0229302774,0.0256254200,0.0281669387,0.0304545830,0.0325591214,0.0345110931,0.0361855264,0.0373777708,0.0379918081,0.0381624757,0.0381945760,0.0383539169,0.0386721753,0.0389373271,0.0388973212,0.0385185957,0.0380946156,0.0381189910,0.0390045015,0.0408429044,0.0433867179,0.0462647703,0.0492508552,0.0523768414,0.0558202227,0.0596634134,0.0637167136,0.0675556981,0.0707463446,0.0730693305,0.0745697181,0.0754148394,0.0756947495,0.0753411889,0.0742352619,0.0723998354,0.0700957513,0.0677243766,0.0655943637,0.0637279319,0.0618740114,0.0597328983,0.0572127313,0.0545163279,0.0519973780,0.0498915079,0.0481220741,0.0463391407,0.0441675388,0.0414656902,0.0383989864,0.0352827745,0.0323103584,0.0293623604,0.0260436154,0.0219183253,0.0167574058,0.0106229322,0.0037616684,-0.0035732195,-0.0112060719
211_AXCPT19_TK,AX wrong probe response,Channel-1 HbO,686453.9461135864,701453.9461135864,-0.1837691992,-0.1721725799,-0.1587673166,-0.1439510368,-0.1282044972,-0.1119320162,-0.0953726539,-0.0786698399,-0.0620384489,-0.0458710768,-0.0306732412,-0.0168804937,-0.0047263700,0.0057186044,0.0143711265,0.0209841047,0.0251757412,0.0266348095,0.0253305656,0.0215550067,0.0157759831,0.0084332647,-0.0001502758,-0.0096795443,-0.0197273845,-0.0296760440,-0.0388397006,-0.0466969461,-0.0530658681,-0.0580867262,-0.0620337480,-0.0651166515,-0.0674137133,-0.0689374381,-0.0697124796,-0.0697512962,-0.0689454660,-0.0670086454,-0.0635760109,-0.0584214396,-0.0516330422,-0.0435996377,-0.0348177971,-0.0256864147,-0.0164500203,-0.0073044175,0.0014697316,0.0095110849,0.0165588921,0.0226701518,0.0282789578,0.0340206042,0.0404125664,0.0475961264,0.0553220926,0.0631896953,0.0709475278,0.0786261977,0.0864097718,0.0943356506,0.1020348788,0.1087170213,0.1134350638,0.1154551777,0.1144934310,0.1106966096,0.1044190710,0.0959782890,0.0855778501,0.0734318427,0.0599366666,0.0457049567,0.0314103660,0.0175532845,0.0043334137,-0.0082559756,-0.0201834995,-0.0311898183,-0.0408106353,-0.0486043678,-0.0544230480,-0.0585189899,-0.0613934845,-0.0635001093,-0.0650282591,-0.0659168801,-0.0660721710,-0.0656156066,-0.0649587948,-0.0646319769,-0.0649964092,-0.0660621874,-0.0675424060,-0.0691016289,-0.0706211598,-0.0722860755,-0.0744343573,-0.0773003427,-0.0808562145,-0.0848587935,-0.0890476593,-0.0933219463,-0.0977302165,-0.1022698275,-0.1066741604,-0.1103832854,-0.1127496255,-0.1133615031,-0.1122698187,-0.1099444931,-0.1069830459,-0.1037890096,-0.1004445216,-0.0968408826,-0.0929540788,-0.0890521472,-0.0856571034,-0.0832732369,-0.0820903388,-0.0818840069,-0.0821776067,-0.0825540615,-0.0829081601,-0.0834654434,-0.0845710922,-0.0864330047,-0.0890152381,-0.0921354609,-0.0956615992,-0.0996281183,-0.1041562600
211_AXCPT19_TK,AX wrong probe response,Channel-1 HbO,706524.3461132050,721524.3461132050,0.0664687576,0.0722523854,0.0778921995,0.0831695899,0.0876281202,0.0908453010,0.0926560987,0.0931804467,0.0926706870,0.0913335961,0.0892979775,0.0867590484,0.0841525166,0.0821736651,0.0815785953,0.0828674974,0.0860561904,0.0907152454,0.0962673478,0.1023293034,0.1088633614,0.1160573113,0.1240359921,0.1326207589,0.1413317066,0.1496415800,0.1572799394,0.1643532121,0.1711959992,0.1780519776,0.1847949582,0.1908866972,0.1956046473,0.1983708697,0.1989550510,0.1974423271,0.1940301353,0.1888366406,0.1818906077,0.1733089177,0.1634886672,0.1531244647,0.1430040121,0.1337019668,0.1253821477,0.1178614216,0.1108876146,0.1044070244,0.0986163253,0.0937676022,0.0898709907,0.0865175678,0.0829676820,0.0784418078,0.0723876453,0.0645297494,0.0546815246,0.0424704401,0.0272076190,0.0080609335,-0.0155237413,-0.0433946521,-0.0744940258,-0.1069636672,-0.1384684102,-0.1665558194,-0.1889048373,-0.2034665493,-0.2086198181,-0.2034305668,-0.1879603661,-0.1634393011,-0.1321136761,-0.0967562807,-0.0600680104,-0.0242799502,0.0088913564,0.0380397201,0.0618871263,0.0793437405,0.0897883495,0.0933331237,0.0908460864,0.0836920808,0.0733480856,0.0611216892,0.0480924700,0.0351951670,0.0232706848,0.0129965276,0.0047599574,-0.0013837108,-0.0055915621,-0.0080338376,-0.0087786118,-0.0078437323,-0.0053444501,-0.0015776549,0.0030527955,0.0082020241,0.0136814520,0.0194002312,0.0252188442,0.0308741132,0.0360694870,0.0406543182,0.0447191911,0.0485083884,0.0522119956,0.0558109766,0.0591114617,0.0619288791,0.0642357062,0.0661224187,0.0675921291,0.0683604257,0.0678425323,0.0653539164,0.0603663064,0.0526353523,0.0421502599,0.0290055158,0.0133465250,-0.0045438576,-0.0241016638,-0.0444296992,-0.0644055012,-0.0828795857,-0.0988204506,-0.1113266498,-0.1195744478
211_AXCPT19_TK,AX wrong probe response,Channel-1 HbO,795178.1690120697,810178.1690120697,-0.0027913027,0.0141922756,0.0320287000,0.0502858224,0.0687168705,0.0871595237,0.1053656822,0.1229274717,0.1393809813,0.1544024135,0.1679243170,0.1800734095,0.1909844507,0.2006492183,0.2089295104,0.2157103097,0.2210397817,0.2251273109,0.2282103190,0.2304245256,0.2318151337,0.2324896209,0.2327642515,0.2331525084,0.2341770026,0.2361342683,0.2389979685,0.2425518197,0.2466534909,0.2514186853,0.2571816934,0.2642569465,0.2726683509,0.2820459008,0.2917722179,0.3012664180,0.3101918253,0.3184501702,0.3259930251,0.3326172123,0.3379226114,0.3414686985,0.3429889915,0.3424866459,0.3401560780,0.3362281820,0.3309034054,0.3244582952,0.3174382459,0.3107470037,0.3055093995,0.3027481266,0.3030569462,0.3064739508,0.3126144098,0.3209189008,0.3308045661,0.3416238998,0.3525092027,0.3622863236,0.3696147694,0.3733462091,0.3729028877,0.3684322882,0.3606342637,0.3503659189,0.3382651598,0.3246009398,0.3093702402,0.2924840560,0.2738742046,0.2534772470,0.2311805942,0.2068541681,0.1805001015,0.1524139879,0.1232190578,0.0937394177,0.0648097045,0.0371602998,0.0114259804,-0.0118097816,-0.0320501193,-0.0490107166,-0.0627284855,-0.0735330790,-0.0818834077,-0.0882040785,-0.0928460265,-0.0961570368,-0.0985355544,-0.1003722842,-0.1019249608,-0.1032618028,-0.1043473403,-0.1052017075,-0.1059845291,-0.1069220341,-0.1081537899,-0.1096568753,-0.1113288994,-0.1131622321,-0.1153507544,-0.1182198917,-0.1220324182,-0.1268389799,-0.1324974142,-0.1388371622,-0.1458223137,-0.1535646430,-0.1621766024,-0.1716082102,-0.1816185354,-0.1918981378,-0.2022196835,-0.2124697517,-0.2225371118,-0.2321853516,-0.2410552260,-0.2488155534,-0.2553383728,-0.2607356814,-0.2652096075,-0.2688416286,-0.2715036092,-0.2729686971,-0.2731399533,-0.2722124571,-0.2706218149,-0.2688089873,-0.2669912882
211_AXCPT19_TK,AX wrong probe response,Channel-1 HbO,848852.1530628204,863852.1530628204,-0.0739505631,-0.0719637072,-0.0694632979,-0.0664255062,-0.0627536417,-0.0584960365,-0.0539780705,-0.0497183061,-0.0461796862,-0.0435521079,-0.0417312816,-0.0404965682,-0.0397377619,-0.0395469882,-0.0401138974,-0.0415375398,-0.0437246737,-0.0464459717,-0.0494782950,-0.0526870520,-0.0559607924,-0.0590623363,-0.0615561784,-0.0629148573,-0.0627603855,-0.0610752396,-0.0582119188,-0.0546765653,-0.0508487853,-0.0468444315,-0.0426046877,-0.0381269851,-0.0336486194,-0.0296219647,-0.0264914324,-0.0244557312,-0.0234036697,-0.0230640849,-0.0232516578,-0.0240210656,-0.0256103848,-0.0282282237,-0.0318662723,-0.0362823371,-0.0411509363,-0.0462444061,-0.0514813380,-0.0567972555,-0.0619631959,-0.0665342571,-0.0700094211,-0.0721262215,-0.0731004333,-0.0736268210,-0.0746145542,-0.0768281018,-0.0806591776,-0.0861380129,-0.0931216971,-0.1014785266,-0.1110908716,-0.1216563660,-0.1324649200,-0.1423731597,-0.1500523165,-0.1543928743,-0.1548412803,-0.1514792128,-0.1448275325,-0.1355384564,-0.1241765287,-0.1111842828,-0.0969875040,-0.0820951838,-0.0670655715,-0.0523582473,-0.0382262536,-0.0247755628,-0.0121692855,-0.0008127135,0.0086626497,0.0156444550,0.0198398408,0.0214087908,0.0208463458,0.0187125428,0.0154115531,0.0111725353,0.0062030058,0.0008358246,-0.0044815553,-0.0093502057,-0.0135886030,-0.0172483214,-0.0204600862,-0.0232582201,-0.0255432403,-0.0272038938,-0.0282714432,-0.0289441071,-0.0294396981,-0.0298039601,-0.0298446903,-0.0292483677,-0.0277854026,-0.0254359246,-0.0223335697,-0.0185921185,-0.0141882669,-0.0090173442,-0.0030841809,0.0033344172,0.0097164959,0.0155154549,0.0204028903,0.0243478862,0.0274906054,0.0299277112,0.0315903466,0.0323139206,0.0320272788,0.0308871584,0.0292429173,0.0274639364,0.0257782675,0.0242655546,0.0230026740,0.0222099246,0.0222481990,0.0234554721,0.0259512746
211_AXCPT19_TK,AX wrong probe response,Channel-1 HbO,878441.6561126709,893441.6561126709,-0.0849269461,-0.0967524235,-0.1090854735,-0.1221806598,-0.1362131215,-0.1514253640,-0.1681209256,-0.1864696225,-0.2062810113,-0.2269487245,-0.2476362111,-0.2675947370,-0.2864025474,-0.3039703481,-0.3203551428,-0.3355823440,-0.3496404470,-0.3626429310,-0.3749997299,-0.3874082523,-0.4006061830,-0.4150364730,-0.4306583641,-0.4470224065,-0.4635348512,-0.4797120998,-0.4952533023,-0.5099328106,-0.5234744659,-0.5355555530,-0.5459394942,-0.5546016542,-0.5617024007,-0.5674019726,-0.5716751689,-0.5742922542,-0.5749864426,-0.5736713737,-0.5705243835,-0.5658615166,-0.5599170705,-0.5527227167,-0.5441876984,-0.5343121728,-0.5233498172,-0.5117670757,-0.5000265026,-0.4883848552,-0.4768754383,-0.4654781853,-0.4543242048,-0.4437508380,-0.4341541460,-0.4257669712,-0.4185414444,-0.4122040057,-0.4064009100,-0.4007852114,-0.3949700299,-0.3884262096,-0.3804762014,-0.3704581684,-0.3579849582,-0.3431168426,-0.3262998438,-0.3081038126,-0.2889636954,-0.2691098931,-0.2487041607,-0.2280310860,-0.2075505363,-0.1877401189,-0.1688543305,-0.1508080960,-0.1332926375,-0.1160560804,-0.0991528736,-0.0829775518,-0.0680707916,-0.0548700277,-0.0435890265,-0.0342647864,-0.0268575935,-0.0212544431,-0.0171431200,-0.0138841311,-0.0105383603,-0.0060882653,0.0002630184,0.0089088166,0.0198987748,0.0331768544,0.0487894850,0.0668964575,0.0875828818,0.1106251202,0.1354046710,0.1610415035,0.1866264123,0.2113635025,0.2345391671,0.2553889091,0.2730216921,0.2865241514,0.2952091981,0.2988318736,0.2976183619,0.2921123161,0.2829869743,0.2709784592,0.2569498404,0.2419439939,0.2270927788,0.2133984248,0.2015348480,0.1918071514,0.1842603041,0.1788000881,0.1752210431,0.1731745877,0.1721969311,0.1718568399,0.1719372657,0.1725005593,0.1737840198,0.1760284643,0.1793957668,0.1840195796,0.1900780932,0.1977587713,0.2071134918
211_AXCPT19_TK,AX wrong probe response,Channel-1 HbO,1127085.2379798889,1142085.2379798889,0.3625563605,0.3629259504,0.3621148725,0.3602527734,0.3576793424,0.3547433659,0.3515947227,0.3481290953,0.3441256912,0.3394563502,0.3341933359,0.3285368114,0.3226261243,0.3163950831,0.3096092219,0.3020704155,0.2938210413,0.2851793466,0.2765732878,0.2682886145,0.2603169521,0.2524247162,0.2443866420,0.2361918859,0.2280632731,0.2202809622,0.2129431089,0.2058439552,0.1985644670,0.1907013151,0.1820559904,0.1726568614,0.1626300474,0.1520563392,0.1409600437,0.1294447351,0.1178370148,0.1066818958,0.0965547781,0.0877990488,0.0803705781,0.0739107441,0.0679944155,0.0623592098,0.0569522548,0.0517871870,0.0467522336,0.0415467354,0.0358109783,0.0293409120,0.0222096613,0.0147017255,0.0071109341,-0.0004447230,-0.0080522229,-0.0158743174,-0.0239947845,-0.0323709112,-0.0409155515,-0.0496168592,-0.0585631687,-0.0678181919,-0.0772387857,-0.0863985758,-0.0947065679,-0.1016662120,-0.1071107565,-0.1112501393,-0.1144992707,-0.1172263853,-0.1196053465,-0.1216557303,-0.1234128079,-0.1250749001,-0.1269899057,-0.1294814836,-0.1326608633,-0.1363766937,-0.1403353220,-0.1442945825,-0.1481811945,-0.1520449503,-0.1559044114,-0.1596298866,-0.1629680847,-0.1656899337,-0.1677358503,-0.1692246877,-0.1703131244,-0.1710349328,-0.1712650970,-0.1708412974,-0.1697459617,-0.1681948409,-0.1665413352,-0.1650598145,-0.1637789246,-0.1624952478,-0.1609557273,-0.1590665830,-0.1569605594,-0.1548707050,-0.1529262306,-0.1510454010,-0.1490136081,-0.1466934254,-0.1442094822,-0.1419536151,-0.1403914763,-0.1398144902,-0.1402138427,-0.1413444778,-0.1429072917,-0.1446980535,-0.1466062760,-0.1484874018,-0.1500515398,-0.1508928256,-0.1506584691,-0.1492364758,-0.1468086260,-0.1437093529,-0.1401912044,-0.1362753992,-0.1317944143,-0.1265890070,-0.1207078478,-0.1144480755,-0.1081997096,-0.1022237482,-0.0965442500
211_AXCPT19_TK,AX wrong probe response,Channel-1 HbO,1258173.6211776733,1273173.6211776733,-0.2436405172,-0.2433802132,-0.2418249237,-0.2390070894,-0.2351382478,-0.2306155536,-0.2258764049,-0.2212218787,-0.2167567615,-0.2124820374,-0.2084413392,-0.2047775942,-0.2016439611,-0.1990600011,-0.1968588978,-0.1947860419,-0.1926754313,-0.1905579145,-0.1886078936,-0.1869804521,-0.1856865679,-0.1846044632,-0.1835928710,-0.1825795427,-0.1815261471,-0.1803032516,-0.1786125209,-0.1760563191,-0.1723212106,-0.1673315558,-0.1612401719,-0.1542680067,-0.1465474253,-0.1381111218,-0.1290264580,-0.1195395062,-0.1100719344,-0.1010403292,-0.0926371073,-0.0847540818,-0.0771160168,-0.0695347396,-0.0620967896,-0.0551304265,-0.0489708989,-0.0437126872,-0.0391371955,-0.0348563349,-0.0305565554,-0.0261613286,-0.0217978045,-0.0176180665,-0.0136404287,-0.0097381675,-0.0057664822,-0.0016984203,0.0023725610,0.0063813125,0.0104543846,0.0149281420,0.0201807934,0.0263836522,0.0333527728,0.0406256473,0.0477122130,0.0543269945,0.0604375399,0.0661177209,0.0713401177,0.0758861552,0.0794533235,0.0818637853,0.0831936594,0.0837184541,0.0837198735,0.0833100888,0.0824217144,0.0809674588,0.0790194478,0.0768533336,0.0748352921,0.0732689944,0.0723510698,0.0722698782,0.0733271053,0.0759301431,0.0804169564,0.0868212150,0.0947563262,0.1035254038,0.1123827384,0.1207486456,0.1282338298,0.1344966391,0.1390995564,0.1415415562,0.1414851448,0.1390021825,0.1346293940,0.1291689400,0.1233479845,0.1175495245,0.1117821229,0.1058730978,0.0996998640,0.0932798427,0.0866897255,0.0799332068,0.0729140735,0.0655643007,0.0580140243,0.0506362353,0.0438985243,0.0381071992,0.0332277869,0.0289311588,0.0248373338,0.0207605293,0.0167688995,0.0130304362,0.0095764765,0.0061785117,0.0024526717,-0.0018828450,-0.0068020781,-0.0119715782,-0.0169461101,-0.0214072940,-0.0252660618,-0.0285681420,-0.0313134532
211_AXCPT19_TK,AX wrong probe response,Channel-1 HbO,1382151.3481140137,1397151.3481140137,-0.1153539184,-0.0938209514,-0.0718990885,-0.0500775768,-0.0286849437,-0.0078989649,0.0121208467,0.0311182263,0.0487686729,0.0648320870,0.0792787054,0.0922602180,0.1039406931,0.1143337438,0.1233063083,0.1307715011,0.1369150143,0.1422594532,0.1474942778,0.1531647620,0.1594154498,0.1659537792,0.1722327114,0.1776886622,0.1818699731,0.1844264344,0.1850631115,0.1835859320,0.1800564926,0.1749307032,0.1690312090,0.1633136118,0.1585311219,0.1549921885,0.1525654265,0.1509050652,0.1497011609,0.1487672848,0.1479333899,0.1468716687,0.1450453991,0.1418804874,0.1370654560,0.1307616074,0.1235625905,0.1162105392,0.1092300471,0.1027047538,0.0963380824,0.0897337149,0.0826720561,0.0751898723,0.0674361711,0.0594362907,0.0509594605,0.0416066126,0.0310524741,0.0192466648,0.0064191505,-0.0071095413,-0.0211672092,-0.0358240828,-0.0512482836,-0.0674229958,-0.0839433966,-0.1000500377,-0.1148901191,-0.1278499578,-0.1387438956,-0.1477303020,-0.1550260442,-0.1606404921,-0.1643153823,-0.1656944779,-0.1645911146,-0.1611561824,-0.1558222310,-0.1490795077,-0.1412705964,-0.1325520112,-0.1230186112,-0.1128510757,-0.1023289316,-0.0916827670,-0.0809263393,-0.0698404503,-0.0581575062,-0.0458379144,-0.0332407390,-0.0210406067,-0.0099300695,-0.0003180942,0.0077730477,0.0145688766,0.0202858916,0.0249595580,0.0284924084,0.0308696592,0.0323438398,0.0334220658,0.0346484467,0.0363245878,0.0383637907,0.0403857422,0.0419739485,0.0428959518,0.0431338309,0.0427287256,0.0415852121,0.0394179022,0.0359090193,0.0309594611,0.0248306884,0.0180596401,0.0111917190,0.0045065575,-0.0020660507,-0.0087688868,-0.0157085997,-0.0226449170,-0.0290271065,-0.0342594146,-0.0380354346,-0.0405280471,-0.0423055959,-0.0440390219,-0.0462106089,-0.0490050966,-0.0524090133,-0.0563933677,-0.0610013706
211_AXCPT19_TK,AX wrong probe response,Channel-1 HbO,1387197.6201534271,1402197.6201534271,0.1235625905,0.1162105392,0.1092300471,0.1027047538,0.0963380824,0.0897337149,0.0826720561,0.0751898723,0.0674361711,0.0594362907,0.0509594605,0.0416066126,0.0310524741,0.0192466648,0.0064191505,-0.0071095413,-0.0211672092,-0.0358240828,-0.0512482836,-0.0674229958,-0.0839433966,-0.1000500377,-0.1148901191,-0.1278499578,-0.1387438956,-0.1477303020,-0.1550260442,-0.1606404921,-0.1643153823,-0.1656944779,-0.1645911146,-0.1611561824,-0.1558222310,-0.1490795077,-0.1412705964,-0.1325520112,-0.1230186112,-0.1128510757,-0.1023289316,-0.0916827670,-0.0809263393,-0.0698404503,-0.0581575062,-0.0458379144,-0.0332407390,-0.0210406067,-0.0099300695,-0.0003180942,0.0077730477,0.0145688766,0.0202858916,0.0249595580,0.0284924084,0.0308696592,0.0323438398,0.0334220658,0.0346484467,0.0363245878,0.0383637907,0.0403857422,0.0419739485,0.0428959518,0.0431338309,0.0427287256,0.0415852121,0.0394179022,0.0359090193,0.0309594611,0.0248306884,0.0180596401,0.0111917190,0.0045065575,-0.0020660507,-0.0087688868,-0.0157085997,-0.0226449170,-0.0290271065,-0.0342594146,-0.0380354346,-0.0405280471,-0.0423055959,-0.0440390219,-0.0462106089,-0.0490050966,-0.0524090133,-0.0563933677,-0.0610013706,-0.0662538022,-0.0719599431,-0.0776177971,-0.0825194724,-0.0860220041,-0.0878142154,-0.0879930322,-0.0868995199,-0.0848576278,-0.0820238199,-0.0784488874,-0.0742884400,-0.0699841506,-0.0662417058,-0.0637810416,-0.0630228840,-0.0639267776,-0.0660797003,-0.0689672794,-0.0722440621,-0.0758196317,-0.0797195231,-0.0838612592,-0.0879387041,-0.0915037972,-0.0941826130,-0.0958584405,-0.0966638110,-0.0967713857,-0.0961465410,-0.0944557572,-0.0912077545,-0.0860557433,-0.0790845688,-0.0708895635,-0.0623713763,-0.0543690384,-0.0473634980,-0.0414157691,-0.0363400128,-0.0319715723,-0.0283382089,-0.0256178707,-0.0239382134
